,psdtheta_1,psdalpha_1,psdbeta_1,psdtheta_2,psdalpha_2,psdbeta_2,psdtheta_3,psdalpha_3,psdbeta_3,psdtheta_4,psdalpha_4,psdbeta_4,psdtheta_5,psdalpha_5,psdbeta_5,psdtheta_6,psdalpha_6,psdbeta_6,psdtheta_7,psdalpha_7,psdbeta_7,psdtheta_8,psdalpha_8,psdbeta_8,psdtheta_9,psdalpha_9,psdbeta_9,psdtheta_10,psdalpha_10,psdbeta_10,psdtheta_11,psdalpha_11,psdbeta_11,psdtheta_12,psdalpha_12,psdbeta_12,psdtheta_13,psdalpha_13,psdbeta_13,psdtheta_14,psdalpha_14,psdbeta_14,ECG_Rate_Mean,HRV_MeanNN,HRV_SDNN,HRV_SDANN1,HRV_SDNNI1,HRV_SDANN2,HRV_SDNNI2,HRV_SDANN5,HRV_SDNNI5,HRV_RMSSD,HRV_SDSD,HRV_CVNN,HRV_CVSD,HRV_MedianNN,HRV_MadNN,HRV_MCVNN,HRV_IQRNN,HRV_Prc20NN,HRV_Prc80NN,HRV_pNN50,HRV_pNN20,HRV_MinNN,HRV_MaxNN,HRV_HTI,HRV_TINN,HRV_ULF,HRV_VLF,HRV_LF,HRV_HF,HRV_VHF,HRV_LFHF,HRV_LFn,HRV_HFn,HRV_LnHF,HRV_SD1,HRV_SD2,HRV_SD1SD2,HRV_S,HRV_CSI,HRV_CVI,HRV_CSI_Modified,HRV_PIP,HRV_IALS,HRV_PSS,HRV_PAS,HRV_GI,HRV_SI,HRV_AI,HRV_PI,HRV_C1d,HRV_C1a,HRV_SD1d,HRV_SD1a,HRV_C2d,HRV_C2a,HRV_SD2d,HRV_SD2a,HRV_Cd,HRV_Ca,HRV_SDNNd,HRV_SDNNa,HRV_DFA_alpha1,HRV_MFDFA_alpha1_Width,HRV_MFDFA_alpha1_Peak,HRV_MFDFA_alpha1_Mean,HRV_MFDFA_alpha1_Max,HRV_MFDFA_alpha1_Delta,HRV_MFDFA_alpha1_Asymmetry,HRV_MFDFA_alpha1_Fluctuation,HRV_MFDFA_alpha1_Increment,HRV_DFA_alpha2,HRV_MFDFA_alpha2_Width,HRV_MFDFA_alpha2_Peak,HRV_MFDFA_alpha2_Mean,HRV_MFDFA_alpha2_Max,HRV_MFDFA_alpha2_Delta,HRV_MFDFA_alpha2_Asymmetry,HRV_MFDFA_alpha2_Fluctuation,HRV_MFDFA_alpha2_Increment,HRV_ApEn,HRV_SampEn,HRV_ShanEn,HRV_FuzzyEn,HRV_MSEn,HRV_CMSEn,HRV_RCMSEn,HRV_CD,HRV_HFD,HRV_KFD,HRV_LZC,age,gender,participant,video,video_name,target_emotion,valence,arousal,dominance,stress_bin
0,-0.13760747265947598,-0.13723843650283973,-0.11699671562701691,-0.08061196564994633,-0.08111785542590544,-0.10877306565959073,-0.14668286375538503,-0.1829290609801099,-0.22977146767918358,-0.2737788208613997,-0.27396231729677506,-0.33960668089949586,-0.35307229591202,-0.36376708852558404,-0.3027404520009423,-0.050014745168994935,-0.06590601715773947,-0.06627668876919945,-0.20470690703144237,-0.20589155050859997,-0.16338204541779666,-0.20772196859109385,-0.2028377700817429,-0.2142846067339104,-0.20208979073271452,-0.20209389582956777,-0.22454835771439047,-0.20567205165952654,-0.203274704636911,-0.17457036095700734,-0.239332323272102,-0.23760430854415968,-0.17481427827869683,-0.27279631865349196,-0.2790337775842843,-0.2756212148826679,-0.24317717192370816,-0.24282889268273325,-0.23295813350810723,-0.2195885197597339,-0.2196927448860307,-0.2224784454270979,81.30583222979817,188.9365671641791,10.881194585595564,,,,,,,6.522357311503636,6.534573027906378,0.057591787280332006,0.034521413241492535,188.0,10.3782,0.0552031914893617,15.0,180.0,198.0,0.0,0.7462686567164178,166.0,224.5,3.3547175715850415,39.0625,,,0.020314942171298978,0.050812213361146885,0.014854320302877368,0.3998098727946492,0.23627771740612552,0.5909711719901374,-2.9796233913445493,4.62064090019131,14.705176255248226,0.3142192371557606,213.4626458270051,3.18250430297484,3.0362919871120635,187.19748572492466,0.5111940298507462,0.48361346621052115,0.6840933191940615,0.07670454545454546,49.78976749727827,49.784903477029516,49.79493436494354,49.8016758391591,0.5319735503051153,0.4680264496948848,3.3701483304891386,3.161081213784737,0.5189710225932547,0.4810289774067452,10.59236048967926,10.19790925675329,0.520135624023415,0.47986437597658504,7.859926294437352,7.549555517770397,1.3538189146580986,0.9341785946833474,1.4907605092442524,1.5520680364436417,0.3321944314086278,0.0756537875678811,-0.46972276529147594,0.00036313101046627947,0.05775100039454002,0.6966183749915357,1.0585326179126389,0.8723566521819952,0.7757487273234869,0.4487545477030186,0.6463155359768649,-0.5912925988326407,0.00011288453457951906,0.05627469565698316,1.0312877974607093,1.3164136571061804,5.276230119840795,1.0040877331835585,1.4575956783192083,1.3279058404977762,1.8861681501707124,1.6652791690973532,1.6505083792671127,3.056490175595915,0.7223363454141288,22,male,1,1,Searching for Bobby Fischer,calmness,4,3,2,0
3,-0.15897189919400448,-0.15812293109873288,-0.13111141116321726,-0.10067363045499615,-0.10073900016580183,-0.09796377330409566,-0.06962936969589933,-0.030775279689480697,-0.003793193546210513,-0.16408827895738184,-0.1637051446405107,-0.05275420505122941,-0.30549153869493406,-0.3136521065286971,-0.2192970430998418,-0.1142289367683866,-0.1065834130298794,-0.0856924830290332,-0.19077243332026478,-0.19198107136149947,-0.16023644182311236,-0.1870847927290513,-0.18320416502203457,-0.164320016507806,-0.18156530121958095,-0.18116694848550774,-0.09573849717243776,-0.18574793302569406,-0.18347224775782028,-0.1562287380857053,-0.2077940884384909,-0.20670022423865833,-0.12427012320774293,-0.07861347689790102,-0.07830622611583163,-0.07880954563507651,-0.2310143151768611,-0.23061746730725258,-0.1950136266907019,-0.19355019367011914,-0.1936874766641917,-0.15888340323052105,74.42772171211534,206.4390243902439,12.16358829862138,,,,,,,7.592550864259325,7.60772376680095,0.05892097356373778,0.03677866085002744,207.0,11.8608,0.05729855072463768,15.5,197.0,217.0,0.0,0.7317073170731707,165.0,239.0,4.227253401360544,62.5,,,0.013314537464862363,0.09311827429281955,0.05124013138736711,0.1429865795716055,0.08444419495470208,0.5905782653245362,-2.3738864334877166,5.379473064899017,16.138211137493734,0.3333375428934,272.73860657904385,2.9999621747648897,3.1427134944436528,193.65604088994033,0.524390243902439,0.5188832487309645,0.7378393665158371,0.06227106227106227,51.877055481656576,52.05772712477497,51.7153671748836,40.04314720812182,0.44131502184335264,0.5586849781566473,3.5751125756998583,4.022710971665926,0.5987003927674626,0.40129960723253727,12.483153306504821,10.214239067582497,0.5829474353191123,0.41705256468088786,9.182198090167827,7.763513662929773,1.2978216505870113,0.907956340430455,1.298630027926336,1.7121128239540657,-0.22410406888640733,-1.1524725292035303,-0.0481670109906263,0.0005404072966209738,0.07180217941844885,0.9871879848837202,0.5564127027832819,1.1927169591740878,1.2653943362753612,-0.2034388202206947,-1.2271806059746708,-0.36937454039885287,0.00028527047547481844,0.027063877503525884,0.9484092013645073,1.365782406633707,5.309746013447008,1.0651842766461856,1.4313820942360675,1.3090561450877436,1.8743007336067121,1.6744822793171088,1.7100803377202576,2.159825513363065,0.8054088884847176,22,male,1,4,The Ring,fear,4,3,2,1
7,-0.12165940613966558,-0.12164975838790823,-0.12665505380857317,-0.13643955742286223,-0.1382712250924041,-0.1362157831451642,-0.3541543267349225,-0.3543543217086785,-0.35155508004303765,-0.4763083806309128,-0.4869904221101697,-0.46231986417079063,-0.388174358932458,-0.40671577152038846,-0.3442368338798515,-0.31849500708898404,-0.3062692936663841,-0.20506226917068293,-0.2516843351592623,-0.2537331152692258,-0.2615528483941693,-0.22944032140961823,-0.22536622164125528,-0.2261502786032292,-0.2799172857883937,-0.2814466122592041,-0.2775062844911367,-0.21041959764420942,-0.21187123879661762,-0.1915478559862848,-0.3070248574457282,-0.3068845294884476,-0.29757336658375216,-0.3792337519000828,-0.37862183462308635,-0.36788532635160004,-0.25642882161570296,-0.2561379503611921,-0.2518985460633743,-0.23896872525114968,-0.24163493823603804,-0.24748964453291994,81.97679940973629,187.3854748603352,14.926064138332379,,,,,,,6.2552918193942375,6.260932139727931,0.07965432832751462,0.033381946087638434,187.0,14.825999999999999,0.07928342245989305,20.5,174.0,199.5,0.0,0.74487895716946,157.5,225.5,4.8622173058013765,50.78125,,,0.0042007410545401545,0.0034410223745292056,0.001540027083109578,1.22079129812079,0.45750772145420354,0.37476477333526437,-5.671993071177409,4.42714757255042,20.63352267095516,0.2145609149661949,286.97750882593687,4.660681095314396,3.164816750622541,384.6650701481958,0.5018621973929236,0.464595242485709,0.6626068376068377,0.07871794871794871,49.45144250304755,49.47264538096813,49.43140227047172,50.967260657469026,0.5127263235583543,0.4872736764416459,3.1700267392559356,3.0903921336564366,0.4760920240248894,0.5239079759751106,14.236099621277505,14.933677413435799,0.47770438851336694,0.522295611486633,10.313089653329014,10.783525483426349,1.2614874663052842,0.6570154397237338,0.7340290764949042,1.0625367963567711,0.9925075878377674,-1.5643789055818178,0.0,0.0011337248937476824,0.05656158659079734,0.9600086846887683,0.9766513501311063,1.0351880156701634,1.3229234162867936,-0.5142017012775959,-1.192359698396471,-0.20585106248653712,0.00030789712476846353,0.05585212757121614,1.1374453560292355,1.2684636143619117,5.765210418884699,0.7685765025126057,1.270891986820436,1.2839877242215454,2.15907021190569,1.618695146647404,1.7017597934307451,2.559297697514658,0.5150795856211454,22,male,1,8,Crash,anger,1,2,4,1
10,-0.060754260015225575,-0.06233261680456275,-0.06696611546952742,-0.12193382305496352,-0.12153543698231137,-0.11419217235466773,-0.08006302237286202,-0.07719209984230697,-0.07316843097793811,-0.1333853016460218,-0.13493863174508583,-0.2764860844322225,-0.3157822394589598,-0.3218201580376922,-0.23469682361282548,-0.15627317695182716,-0.1524416110610654,-0.11851502916433204,-0.10634344733523246,-0.09887868360479471,-0.10504535436511123,0.05140379157527009,0.043662410861628455,0.03361527026516755,-0.1670175707907832,-0.16631226410468913,-0.1204521851031851,-0.18831207032162567,-0.18293215422182146,-0.13707635879650742,-0.045727012666126735,-0.04788136388470417,-0.06345262966553185,-0.08463325396928666,-0.08432231086894264,-0.08468459731726188,-0.22289303026858795,-0.22246282916725124,-0.2179258295903417,-0.1233621956863286,-0.12357039095538679,-0.1296648956518892,73.83047581060615,208.19827586206895,12.246986049142272,,,,,,,12.529038253308546,12.58284852226842,0.05882366699931696,0.06017839581730741,207.5,9.6369,0.04645176978818283,12.125,202.0,217.0,0.8620689655172413,10.344827586206897,179.0,249.5,3.463458110516934,46.875,,,,0.03199783165578831,0.002280247342499833,,,0.9331176248290403,-3.442996273032059,8.897417516739129,14.700712883861588,0.6029213340607286,412.68253382353566,1.7115926874467453,3.312019928837044,100.25994877461503,0.6681034482758621,0.6752731395588538,0.916893115942029,0.3275,48.84533122663687,48.715316636135555,48.973151767661875,49.257884972170686,0.5422819710785404,0.45771802892145963,6.594461285794765,5.96449089383482,0.5757259371348779,0.42427406286512204,11.142275042249265,9.57615532262069,0.5717913549160081,0.428208645083992,9.205466277124,7.984541285910506,0.581779645135429,1.8596600816729172,1.1083305830228793,0.9826759484077887,-0.038405462057111706,0.1337723131745251,-0.5666605295962297,0.002494683858004807,0.2767381160475582,1.0841156522934146,1.356106000827979,1.3157605683988653,1.356539506546731,-0.0762525014496731,-0.03743053995860901,-0.4699293874350768,0.00026728267827958894,0.09847253300774979,0.6432374697514205,0.9557730021007504,5.010147347194067,0.9487890367147163,1.2707649407977633,1.0784590058410561,1.3641161160213402,1.3569880092037874,1.7991098561775234,2.507587808906413,0.7094463098407833,22,male,1,11,Pride and Prejudice,calmness,4,2,3,0
13,-0.2125622735280217,-0.2105192933584024,-0.16657411247131673,-0.10984531780702558,-0.10970840246707206,-0.10495796563934,-0.04798922985648445,-0.04824489844487674,-0.04217423337370823,-0.0869930236604409,-0.08789750373604069,-0.15331764502166714,-0.2450387437722368,-0.26295560765969195,-0.2517711962561922,-0.18122309727527264,-0.1749123401865309,-0.13728470329261377,-0.12428835428423274,-0.12544351156111072,-0.13425097265298805,-0.17438709497011584,-0.17141125740845475,-0.1716926913969103,-0.14359303517443905,-0.14152170974251604,-0.13555010995798342,-0.17433044272366424,-0.17211178133887375,-0.14621836542028233,-0.17216689515035555,-0.17179372917239036,-0.17519871817484145,-0.15397361828219047,-0.15353018597773038,-0.15084374434643083,-0.23200061582338108,-0.23160459432823288,-0.22712736976199746,-0.12300181802639759,-0.12324874381972147,-0.12951958195123559,71.19137472510977,215.77114427860695,8.52112764112336,,,,,,,7.552645178793948,7.5712240232214745,0.03949150693718689,0.0350030362217566,216.0,7.412999999999999,0.034319444444444444,9.0,210.0,222.0,0.0,3.980099502487562,188.0,241.0,2.324398395721925,35.15625,,,0.0289271702081833,0.054397159375608614,0.004131972226725752,0.531815806064373,0.33077345186870755,0.6219842568992655,-2.911473763591765,5.353663848702399,10.800995850327126,0.49560282593316063,181.68699387284994,2.020145760840651,2.965917563750216,87.26758646200372,0.6840796019900497,0.6667107350608144,0.8943089430894309,0.29047178538390384,49.202615353848984,49.1974651456407,49.20854879846314,49.86338797814207,0.5582975086664106,0.4417024913335895,4.001711981237972,3.5563194457280334,0.5646037956218661,0.4353962043781341,8.11326040255329,7.120896227618279,0.5631186449160913,0.43688135508390863,6.396935894464075,5.629882837797723,0.8824696763271862,1.3390728448617386,1.2235989687221314,0.9034686122024653,0.23865488783904265,0.7123391578895515,-0.7552564690715925,0.001292976267146148,0.12641632566498862,0.9788147079256964,1.522337831332718,1.2432857855198858,1.3753478557894907,-0.6990968236314092,-0.8048430948111482,-0.41375672068025693,0.000258598852823666,0.11509319964750282,0.8602378507891164,1.3975983688040872,4.761172232147219,0.9680623050906687,1.59058741931912,1.322553398610991,1.9396748443651264,1.553626053609725,1.7405791887768445,2.5691315570938755,0.8945259439935564,22,male,1,14,Gentlemans Agreement,anger,3,1,2,1
14,-0.150073586647897,-0.14920768276243748,-0.12439208294072383,-0.10244983934469704,-0.10247031676874573,-0.09926729326511723,-0.03622126233890491,-0.03849155785330493,-0.0907851915486825,-0.019855707161579226,0.015859595731692898,0.4764783381522406,-0.30715203474950653,-0.31541327920702866,-0.25384383736208094,-0.15004307508747672,-0.14649095820780353,-0.08876209096452545,-0.12446356264188545,-0.12571012414467458,-0.1349236570719319,-0.15578229007554997,-0.15315919608324213,-0.15500643110925244,-0.1518124101677091,-0.1513906062514027,-0.12470906002489529,-0.1311142870686059,-0.13653947932794858,-0.1336385400671949,-0.13806294701677072,-0.13836360987952817,-0.14503375543988092,-0.13666752419226988,-0.13632613341692557,-0.13472057917945288,-0.20721166860834145,-0.20672118195026853,-0.20207471981701386,-0.1581242080275699,-0.15829201413318922,-0.1637352270999277,73.91600835222542,207.83597883597884,8.069968401879489,,,,,,,7.229830686670689,7.2393559037943085,0.038828543773203925,0.034786232524140426,209.0,5.9304,0.02837511961722488,7.0,204.0,213.0,0.0,3.0423280423280423,178.0,235.0,2.223529411764706,39.0625,,,0.04332696133992928,0.043741586390448325,0.007902724743154555,0.9905463817628326,0.4562133572824063,0.4605741594206928,-3.129468735383206,5.118997650995823,10.198745593020803,0.501949742573945,164.00608297410977,1.997097749907795,2.9213434963491283,81.47570650839646,0.6521164021164021,0.6309393048223081,0.8585224744103249,0.2650222118307225,50.40052710520514,50.40424119290232,50.39681228087275,49.54912659887326,0.5198750995566174,0.4801249004433825,3.69067920927965,3.547330446474316,0.5103948461943468,0.489605153805653,7.2858159949061285,7.135684227116259,0.5124572569033199,0.4875427430966801,5.776756324071078,5.63548062261134,0.964075901798366,0.95115606893815,1.1229600145073144,1.1269965080910611,0.17401700350663374,-0.12450080785495254,-0.5059470627717179,0.00020197996290247864,0.046993484331252,0.8767346285486154,0.5698932715632414,0.8925458847679435,1.051047334387607,0.9072188353371207,0.12848669522237854,-0.2218600377998326,0.0007960919618524595,0.04540020788274937,1.053301915751145,1.3466662775684923,4.7744727450975155,1.0040655874039504,1.4745666353577578,1.3519954809351447,2.014796709253506,1.3727669485718001,1.7853470699689562,2.7349161419535775,0.9060573993884733,22,male,1,15,Psycho,fear,2,5,5,1
18,-0.16541573502735687,-0.16440431330705474,-0.13525697655164828,-0.12058495625687025,-0.1202133849305579,-0.11314246534824605,0.007604879426909374,0.007862210949302097,0.012596372675185364,0.07702200385187757,0.0802731733451067,0.0881305910376961,-0.21815948720680686,-0.22164375110211482,-0.17147507820445024,0.44277281131043494,0.4163051934841663,0.2270670287391121,-0.023525673916652924,-0.024994291142751618,-0.03611796160292797,-0.16166016487959525,-0.1590100533703256,-0.16058773125582648,-0.1436462373457355,-0.13178085643283802,-0.04092036641137464,-0.18292450787539077,-0.18065438542935264,-0.15368915297461802,0.029045236481697382,0.02547227946484259,0.0028886891868172998,-0.06365780420216643,-0.06332667822911157,-0.06406688584481814,-0.2534270604541127,-0.25311959064183437,-0.24883239718472144,-0.15772403183865885,-0.15787352577027808,-0.16317624146714735,81.39504252090967,188.79368029739777,13.40277140900213,,,,,,,10.578328014882635,10.597378972470754,0.07099163244025018,0.0560311557866469,187.0,13.343399999999999,0.07135508021390374,19.0,177.0,199.7,0.0,3.5315985130111525,165.5,248.0,4.33983866770752,46.875,,,0.004692927906078505,0.02807505813773796,0.005188718825263889,0.1671545178759786,0.12363737340132673,0.7396631228073496,-3.5728768549734236,7.493478534237796,17.382944219174476,0.4310824522809022,409.2203310606429,2.3197421675891112,3.318926230307009,161.29587418373092,0.37732342007434944,0.3610166964818127,0.36364676275451846,0.0,50.724348104470835,50.71987068385848,50.726683368603986,44.01759093619559,0.47710115023896305,0.522898849761037,5.176292298631568,5.4190452059340615,0.5644841672934513,0.4355158327065488,13.057562887654063,11.4668166368561,0.550791200444978,0.449208799555022,9.932406405028807,8.968624502073357,1.0714458063151602,1.740934205125681,1.3226151159921766,1.9419129088780007,-1.748830766626348,-2.7300517388791183,-0.14453325229393052,0.002318351860590627,0.2651053739871575,0.5041346921676613,0.5644979544183089,0.4704099794585549,0.2621127994324598,1.0,1.4182377208975803,-0.8689874978558143,0.00024438435983478816,0.02422231564200817,0.8882405227550916,1.238016994286565,5.445366938134157,1.206368967991049,1.3821755360505295,1.301069687876288,1.9413933006815176,1.6779416644879808,1.8459917046191916,2.6527962823748634,0.8101467798848656,30,female,2,1,Searching for Bobby Fischer,calmness,3,2,2,0
21,-0.20179322712938447,-0.1999861787903603,-0.1594101581281823,-0.1364782174249824,-0.1357619167444728,-0.1253063524114529,-0.1389004450036149,-0.13884101546096733,-0.13511622652116634,-0.21971862078290047,-0.219577377590645,-0.2017200126372992,-0.3740542595488899,-0.38585354655548965,-0.315533943923403,-0.28780157491962094,-0.27691668823680066,-0.18753527380296262,-0.1444676107637604,-0.1457430170673215,-0.15489372220998154,-0.17558415537624933,-0.1722541872707126,-0.1732727847559949,-0.19071794322807564,-0.1904813202148188,-0.17845102818688363,-0.19061560914801756,-0.18831089440635482,-0.16045449389877944,-0.3215109772562027,-0.31810786108910405,-0.30681268755952157,-0.2459047526192325,-0.24543988163250313,-0.23981091012785433,-0.2431852267774094,-0.24283393454700386,-0.23845190087610735,-0.20601316507843226,-0.2061266065404095,-0.21067104853774893,78.24583465524553,196.36976744186046,16.551264742685213,,,,,,,12.344632630297632,12.373526629496478,0.08428621618717567,0.06286422096642102,196.0,17.0499,0.08698928571428571,23.0,182.0,210.60000000000002,0.0,9.069767441860465,163.0,242.0,5.002705627705628,62.5,,,0.005622555408253378,0.05255587355512352,0.030642621606251107,0.10698369599077513,0.06330263875960407,0.5917044323718884,-2.945884265990781,8.749404586909282,21.7430117289476,0.40240069433931863,597.6517046780036,2.48508799510254,3.4834178456098197,216.13315091303508,0.3883720930232558,0.3747158283603297,0.4675324675324675,0.013986697965571206,49.82143132626773,49.8327898457957,49.80973803673946,47.44245524296675,0.4677548333900471,0.5322451666099528,5.9839331700138105,6.3831677396438575,0.5104791061920819,0.48952089380791813,15.533818820280286,15.211569370267068,0.5045274514649805,0.49547254853501965,11.770944451239679,11.664892542324564,1.0651442761225964,1.9550515072794497,1.0666218536485377,1.997066946456663,-1.4335717690567362,-2.34236560244542,-0.024071476415053854,0.003726783177830249,0.3644156963125574,0.7634786839418313,0.8472816362679503,0.81592273974832,1.1833758749678833,-1.1097860248627178,-2.109786024862718,-0.0663153239238152,0.0003367975860226024,0.049289817139527584,0.9543431697971345,1.4746347480026682,5.7991353114526785,1.2169289989953602,1.3567592479438226,1.3814407192409925,2.0222813290269372,1.8182244075176026,1.8087052619256814,3.4022653279920796,0.9730288694833277,30,female,2,4,The Ring,fear,1,5,4,1
25,-0.22252725352425376,-0.22026535095234517,-0.17317432504710153,-0.04634120927459759,-0.04761051982009566,-0.056546674727746216,-0.29551699468990633,-0.2957235958263423,-0.2930311250639865,-0.41004980977517547,-0.41092363523620645,-0.36931562034536936,-0.39490134373172775,-0.4097745329856589,-0.33682688856957843,0.032277201529878924,0.026668304136104822,-0.006328034272129927,-0.21497995424484412,-0.21613897401910565,-0.22409487316341153,-0.20275278138304578,-0.19810659527054286,-0.1980574918105248,-0.2616482728942428,-0.26280447754029423,-0.2571306384809244,-0.21313106373620244,-0.21068536056673243,-0.17999146953503548,-0.15437808592344876,-0.1543558406190626,-0.15940963171342923,-0.32254748962159974,-0.32197956169780056,-0.31331868904823085,-0.24673206964207378,-0.2463947696259984,-0.24203764591065002,-0.22769724132022437,-0.2277810138780134,-0.23190278809948656,78.17030447599693,196.59589041095893,18.64697820838339,,,,,,,13.035866402138637,13.048622827356851,0.09484927798562658,0.06630793147457224,194.0,14.825999999999999,0.07642268041237113,21.0,182.0,210.0,0.19569471624266144,11.545988258317024,159.5,283.5,5.187950937950938,70.3125,,,0.03042787402624838,0.051543285996508814,0.021902311467772988,0.590336358553502,0.29293217682044204,0.49621229205439366,-2.965333348417465,9.226769686369607,24.698221647648914,0.3735812153154473,715.9196020703589,2.6769225500738747,3.561825911072085,264.46153569441105,0.46966731898238745,0.4465704934136706,0.6820208970438328,0.040589331469834615,50.17490423559123,50.17579465539376,50.18095721493272,50.310791756820265,0.5494179993735422,0.45058200062645803,6.839135782702902,6.193547989706724,0.4745787288619875,0.5254212711380126,17.013658844249502,17.901886621388908,0.48375860671368565,0.5162413932863144,12.966300422516664,13.394732410902535,1.255147473843548,2.1296928555551005,1.5023282760260595,1.9475957399544124,-1.3554413908493919,-1.2790083064997018,-0.29103430944516323,0.0018077307513968358,0.28684287527804225,0.7148594980189091,0.6455034792018362,0.7818394982706273,0.7337382317762575,0.47029846563800426,0.3535374384839125,-0.5745462413729138,7.871566161322752e-06,0.014735095907182964,1.2073569963708606,1.4356597168351375,5.99193950670368,1.0813416796720765,1.388741437627488,1.395165986466051,2.1334707285212158,1.6020087946328987,1.724295775962771,2.512032385922401,0.7835117160503409,30,female,2,8,Crash,anger,2,5,4,1
28,-0.1814497996676954,-0.18008858936086497,-0.14592349600588106,-0.1044747464514886,-0.10445025637763199,-0.10083131924339724,0.1126968594471274,0.14426682013509784,0.3528071869937642,0.11885569019690292,0.1348584432657011,0.1093629675191839,0.10432539293149846,0.11057446486358001,0.1635080738438882,0.13462494163759964,0.12387697352631326,0.05201797008950125,1.1784059073170727,1.2818657714333865,1.481452358724147,0.054165484868643775,0.06914893711194195,0.20801238811922027,-0.2489891308542698,-0.24989089193329142,-0.2430640079103314,-0.06216075393279377,-0.060559584284976375,-0.04834315064996479,0.08021930956011653,0.10327856143747334,0.17044616568842974,1.1029520832119413,1.1987303670673786,1.5187570676257747,-0.22791690960746241,-0.22749737686245358,-0.2229593955265407,-0.25092050424015006,-0.25098126677535654,-0.254688516417129,72.0996438450783,213.18421052631578,17.07274132771561,,,,,,,13.646276431522988,13.707035987875512,0.08008445506149775,0.06401166576939557,212.0,20.38575,0.09615560951188987,27.875,197.6,228.4,0.0,14.035087719298245,179.0,258.0,5.564285714285715,74.21875,,,,0.12251553043822828,0.03715539250572257,,,0.7673010265087417,-2.0995175343248733,9.69233809699482,22.072600569538764,0.4391117115786187,672.0982787479361,2.2773248270357893,3.5344011905335924,201.06591095083854,0.3684210526315789,0.36363636363636365,0.3875,0.014705882352941176,50.11792460118555,50.14244788381002,50.093395204668624,44.54545454545455,0.4403053650463052,0.5596946349536946,6.431411874194412,7.2510747600484775,0.5793438223485323,0.42065617765146757,16.8004741727896,14.315855724247687,0.5568682368831306,0.4431317631168694,12.720443439094309,11.34729235404211,1.110273722083011,0.8817541042379935,1.1414656403724193,1.5215495817007691,-0.208285694906734,-1.1490833099042566,-0.06892091293964164,0.0003960168407476603,0.06034662074272311,0.7639929469261608,1.334460938101467,1.1627007660867452,0.6908644235105531,0.9129176073008503,1.7784465489976966,-0.8535782345547499,0.0008768306785101478,0.13201183339645703,0.5758796359145046,1.5169420197591839,5.598406338638997,1.2678050171413586,1.4598483402643256,1.3421501792152644,1.7456429290014612,1.9562975408028027,1.84337103488257,2.6728085230451155,1.0189397389543913,30,female,2,11,Pride and Prejudice,calmness,4,2,2,0
31,-0.2287289310766717,-0.22632907889989326,-0.17727983868528124,-0.10942393225716002,-0.10929715870469771,-0.1046384703531038,-0.26607910986849553,-0.26622161920054793,-0.2633108589758357,0.00956450530716127,0.010952530290563884,0.00046610296465483234,-0.3589493181355979,-0.3729587591037971,-0.3042308124156524,-0.1826819901070234,-0.17715173013086769,-0.1278030115285232,3.2318695643067037,3.226435632369094,3.1672170337403855,-0.03253522608390789,-0.036112824481559676,-0.04251914043755489,-0.23836091366404644,-0.23904829154612386,-0.2312259186065107,-0.12923933096539994,-0.1272901543224036,-0.10703689050706618,0.08325377725240739,0.07854082240175006,0.0505542498928217,-0.23266627712042304,-0.23217581830359363,-0.22684345882771365,-0.2324219163608084,-0.23202572342105263,-0.2275386214375042,-0.17753688531658496,-0.17768219877810498,-0.18274227751121055,70.8931006173781,216.7975,18.273770727324944,,,,,,,15.970449659192269,16.010212764549642,0.08428958122697433,0.0736652824948561,215.5,19.273799999999998,0.08943806847545219,25.0,201.0,231.20000000000002,0.5,21.0,180.0,271.0,5.798319327731093,70.3125,,,0.01118420078450309,0.14008903040517268,0.01977645342858001,0.07983638419269251,0.06538575769629866,0.8189967097921746,-1.9654771425855173,11.320930014052472,23.231241511109378,0.4873140672035322,826.238339751884,2.052077071713711,3.624072254354876,190.688868348914,0.4825,0.4699634598603839,0.6944684528954193,0.007042253521126761,50.50304514018292,50.54236357586015,50.466596207363224,45.95467931937173,0.48996825113998205,0.5100317488600179,7.924517324242052,8.085313082257894,0.5281888764778551,0.4718111235221448,16.880290150714046,15.952637381877501,0.5208346025592985,0.4791653974407017,13.186478571475526,12.64718518763633,1.0453899661287769,1.5412428131449152,1.174082907282941,1.778523170925573,-1.5410634517384354,-2.4677513779417755,-0.10872044355104116,0.001243216515210111,0.1844335208056977,0.6645451981345999,0.31427118870786197,0.6822442755975936,0.6306380662244448,0.6916067598585145,0.263485133125408,-0.666487489057998,1.617734950660077e-05,0.0032162739906918857,0.9095559136531235,1.7916765711096523,5.792304647121196,1.3620478434319354,1.6573996215204794,1.5244587218696133,2.1225059397955457,1.7878779262925526,1.85256946886404,2.880585138786482,1.0510302260940245,30,female,2,14,Gentlemans Agreement,anger,2,3,3,1
32,-0.18201942342211272,-0.18051034703240687,-0.14579318855958753,-0.14196608945607864,-0.14113213047238385,-0.12949927224100577,-0.15883360179518985,-0.17234497174627025,-0.21119224632266062,-0.04505057264603131,-0.043898640951879175,-0.0473111272246319,-0.3755602146908376,-0.39058506932550907,-0.32760732015294636,-0.18259630188147188,-0.17950047875831604,-0.1291758808547755,0.060489333323814884,0.05888656277217335,0.046415141771099226,0.3768675761271268,0.3931243690940083,0.4829780228321395,-0.20517985047882523,-0.2052250134719965,-0.19447361455470383,-0.15836700058481773,-0.1621313142225468,-0.16425526510845204,-0.06743089360633564,-0.06913526320586416,-0.0825698305124872,-0.2613012520115198,-0.2689305411837822,-0.2623034900899834,-0.2511468364487802,-0.25083992926980203,-0.24657688294957164,-0.24353500100287018,-0.24360511157353945,-0.24745477313485276,68.9897431633745,222.81728045325778,23.257801296227022,,,,,,,19.802755965678237,19.830944854367026,0.1043805994745329,0.0888744173644655,219.0,23.7216,0.10831780821917808,32.0,202.0,242.0,1.41643059490085,28.753541076487252,181.0,308.5,6.724419448476052,85.9375,,,0.021289957980642142,0.037283473295239226,0.012351648553001695,0.5710293467968026,0.3001757372921222,0.5256749133643619,-3.289205137291218,14.022595583859395,29.804102860835975,0.47049212033931,1312.9685934129986,2.125434111608862,3.8252244423970048,253.38662692993242,0.43201133144475923,0.4279538904899135,0.6060448031924541,0.015686515748031496,50.00457289189683,49.998810220544826,50.01534218859378,47.262247838616716,0.5083292580475098,0.49167074195249016,9.997719741930977,9.832536329282876,0.49212146909211835,0.5078785309078817,20.90798615708492,21.240071037692957,0.4950590100822513,0.5049409899177487,16.387469088475086,16.550217347912614,0.8758913844981742,2.1024015393631474,1.146900623837283,1.5582029996156903,-0.956174094048051,-0.9848658153655929,-0.3049488133769006,0.0024816263718290795,0.31600506782685056,0.6143422148472619,0.2947313966959128,0.6477165199007846,0.7604361870748947,0.46185673340440037,-0.5355998143549524,-0.11756332550698381,3.127051781782415e-05,0.006037408181725889,1.216021365640556,1.7932472888120148,6.258685680838333,1.3180497669368147,1.4013413295765489,1.4229436796024988,2.0336677215603363,1.817568609565705,1.9221711371783248,3.392014631057287,0.8391596404093239,30,female,2,15,Psycho,fear,1,5,5,1
36,1.1400602956646615,1.1125021984887353,0.7309282226726469,0.2515239656622279,0.24391672783461896,0.1715580731369625,1.6495895616930831,1.5205844571800726,1.254742925951064,4.0431078507872,4.409188387786409,10.70924885990535,0.2417987293955432,0.317422648563038,1.3491046159161812,9.40054487998372,8.91708173211523,5.312590316120907,0.6744161068247901,0.7366755569168195,0.8225040081375344,0.6307661656162991,0.6012794145398836,0.6841257718465226,7.847202879360378,8.58473740610942,9.904543997805382,0.7248862711278665,0.7562425896384989,0.8620830920716025,0.28239598035239977,0.23466624098396466,0.17939930305464116,2.347328476210803,2.3454654250896794,2.253781715451422,0.9932323640291506,0.9990151854315474,1.0152657225686446,0.3425610353108075,0.3419346852318008,0.32737949547127726,70.40081783186564,218.22844827586206,28.080344078026435,,,,,,,7.9661647176831085,7.983307637249288,0.12867407663793742,0.03650378665394302,224.25,27.428099999999997,0.1223105199053452,39.0,197.0,243.8,0.0,0.0,151.5,254.0,5.874358974358975,97.65625,,,0.0045122055264760486,0.0014043084578086481,0.00019859935991453306,3.213422301545962,0.7378773532251839,0.22964679138010113,-6.56825206305016,5.645050966597325,39.38624658464107,0.1433247786120007,698.4967502852892,6.978185850623798,3.551098485433112,1099.3731515075372,0.5689655172413793,0.5555635540929659,0.8897441023590564,0.09310273405136703,50.37752944729691,50.37283873833026,50.37686364927467,46.71328671328671,0.45534372913129484,0.5446562708687052,3.8093043799295323,4.166178851562131,0.49035452067518015,0.5096454793248201,27.573016050032273,28.110241454035695,0.48963867009949913,0.5103613299005009,19.682274511729347,20.0943177827711,1.1287490015530166,1.2759561036138662,1.7646256375034102,1.6974633584145788,-1.4047461393001663,-2.4047461393001663,-0.5746523909556617,0.003057769977505772,0.21742050852536543,1.516307989492582,1.2998686635263303,0.4985880386683861,1.148522370431551,1.5495107182578192,-0.08926440982604689,0.0,0.0018603803658777706,0.16667788412502565,0.727521290015076,0.7348972891860357,6.114198649932414,0.597807385771562,0.18675036438102377,0.7420795702272756,0.8893021175061108,1.4367676302554204,1.7581497561266546,2.3333467170228808,0.42338259672023554,27,male,3,1,Searching for Bobby Fischer,calmness,3,4,2,0
39,-0.09546381581225258,-0.09624008137436565,-0.08984297641769287,-0.07220350476992811,-0.0729848109822726,-0.0766195958526054,0.0038419999855366007,0.003375327589541872,-0.10836744663807787,-0.06841132869835077,-0.06745747479339938,-0.0835049206409413,-0.2684327270390839,-0.2758803017227665,-0.19014632208403004,0.0017752910924642758,0.0007327746706204342,-0.10685569556959494,-0.14678256714879429,-0.14805200699941237,-0.20816794584603684,-0.14394116188404144,-0.1423423575252585,-0.1613299175732229,-0.13717254128235418,-0.14701456440804855,-0.15641529786217168,-0.16993870297853977,-0.17202248213717902,-0.1470243879337073,-0.10612312896727918,-0.10713413534712735,-0.18175073866688526,-0.12766757209292204,-0.12731116318138663,-0.12599126085275897,-0.2256299937181484,-0.2252029053421028,-0.2206635394510606,-0.1342100270390882,-0.13441601308327578,-0.14035283836543325,58.71419195377343,261.68633540372673,8.384380761384463,,,,,,,10.605403652165723,10.636689673083303,0.03203981135643377,0.04052715965694229,262.0,8.8956,0.03395267175572519,11.0,254.0,269.0,0.0,1.2422360248447204,236.0,277.0,2.849780701754386,31.25,,,0.026050576124360104,0.021934477894292235,0.0005265526727311377,1.2103409063597423,0.5405471711683255,0.44864733009434676,-3.841173860213726,7.521275397214124,9.018633091209592,0.8339712422959982,213.09920129039074,1.199088079388293,3.0355513724387797,43.256571897210016,0.6770186335403727,0.6689915339737684,1.0,0.14476428869420108,51.13559016158164,51.15095299000408,51.12103535383697,41.39360442163442,0.4514319791658674,0.5485680208341326,5.05440625816188,5.571710104173324,0.6383230885020392,0.36167691149796094,7.205049516675201,5.422917762905792,0.5616286287014803,0.4383713712985196,6.22337222690671,5.4980881096791485,0.4311941413796967,0.7742024681458248,0.48893209001483573,0.750872936823007,-0.5994627157753976,-1.4332385620648365,-0.16161063193047281,6.278464385889114e-05,0.02837880347630793,0.9556812670428089,1.173324179820392,1.4351653214974114,0.8485032315872154,2.1716536106419433,0.5371484561597437,-1.0,0.00020763880906484057,0.07634835958375899,0.6747453533909269,1.7953695932147986,4.82481552303638,1.4002967401244897,1.1486906388195963,1.195773910190395,1.8501416939287196,1.8242901501472717,2.000806146067047,3.7618000633191526,0.8651392589079362,27,male,3,4,The Ring,fear,2,5,5,1
43,-0.22796919582136532,-0.22860222023305257,-0.1785985032951744,-0.11546228838428672,-0.11514257528959411,-0.1089806620658547,0.04612650628949359,0.04535819326166961,0.0051004401932855025,0.18377470203359778,0.18435141187382195,0.09533195040029638,-0.2724417143049322,-0.28028009615050153,-0.20363907532595868,-0.01609835198112126,-0.021843857386461003,-0.11586898351214309,-0.03172951239560188,-0.032895644479373216,-0.04261006603680487,-0.14000431578715272,-0.1387174499225587,-0.16116552490810193,-0.06713801453322953,-0.08054110422139762,-0.102214898080507,-0.1068365488380422,-0.10562579795012748,-0.12639890893863953,-0.018778319475138066,-0.024295421359190494,-0.10868933295975355,-0.11757953772784419,-0.13591155067198812,-0.24176672439809735,-0.22360256042543067,-0.22316752415744998,-0.21859433114344146,-0.20450631348300802,-0.2045333458110833,-0.2087290312949965,60.12542269796148,255.51017811704835,8.183670999355241,,,,,,,9.988448990897318,10.001212971919408,0.03202874757905359,0.039092176455814,256.0,8.8956,0.0347484375,12.0,248.2,263.0,0.0,0.7633587786259541,232.0,273.0,2.96607997265892,31.25,,,0.0017489448849236418,0.003455081330887935,0.0008688590677994386,0.5062022612576371,0.287992438228702,0.5689462135734535,-5.667912444492807,7.071925512535078,9.14461476051087,0.773343462008346,203.16686775200043,1.2930874628611606,3.0148229949102965,47.29916368660261,0.6323155216284988,0.6274606299212598,0.9895833333333334,0.05005357416194704,49.977825906237015,49.98357289361188,49.972054219239624,40.78494094488189,0.4293743422092668,0.5706256577907333,4.633953687368143,5.34210038666231,0.6316033090765263,0.36839669092347394,7.26750958530782,5.550340471380639,0.555918193885098,0.4440818061149019,6.094699261824179,5.44726287106627,0.3592509887843498,0.36618955525004016,0.36759045482320774,0.5329469922999845,0.16257337124390792,-0.8186290805373213,-0.04839711776991608,1.9916919498200444e-05,0.006959976240441685,0.6697426028139082,0.32843633520223436,0.39822490216661954,0.5624430697677367,1.117194781700821,-0.2819441780102496,0.0,1.6166415152122058e-05,0.005975386604452147,1.133617848486804,1.7769777922714252,4.983298415711268,1.2983625961607306,1.0015946919210674,1.289207269939544,2.1969254949504404,1.7695992222233539,2.058949637718161,4.220545537222552,0.767540693585372,27,male,3,8,Crash,anger,1,4,4,1
46,-0.08561316482143881,-0.0861161341034778,-0.08145302218971147,-0.091720750429791,-0.09189584901710253,-0.09074148128272336,-0.0943207891322207,-0.09416664160290915,-0.08998556524363198,0.34710515551997767,0.41673741314275864,0.47515543365210267,-0.18741008161085926,-0.1916250350714821,-0.15966784063387218,-0.14019348666520332,-0.13685159074044234,-0.10368303682391525,-0.2458249505534946,-0.24695263266265924,-0.2544797809826679,-0.15077076000560857,-0.1494466316885583,-0.15103111235301395,-0.11434658380355783,-0.11262045864592997,-0.09380446702199141,-0.16511526876908417,-0.1636949092839785,-0.14011466838574374,0.9989955330865599,0.9759217427241049,0.8588028087449281,-0.03942286028461794,-0.0391462773241156,-0.04106131120825126,-0.2063084438400641,-0.20581481035564206,-0.20115077174316753,-0.15049657867264346,-0.15054776399989991,-0.15556732060903275,60.5781502894082,253.69791666666666,8.438121796694212,,,,,,,10.886170704476363,10.939004633788965,0.0332605088270435,0.042909972803520054,255.0,8.52495,0.033431176470588235,10.25,247.0,261.0,0.0,2.6041666666666665,232.5,272.0,2.668725868725869,31.25,,,,0.028888176677566792,0.010444553447557115,,,0.7344869331058353,-3.5443269631117946,7.735044355983243,8.883644036607423,0.8707096178509653,215.87494732219125,1.1485658685001778,3.0411609001513855,40.81395933414616,0.5677083333333333,0.5729897148200094,0.9622641509433962,0.027402402402402402,51.720344672542595,51.72222923259338,51.71918998727206,41.61991584852735,0.44350336910211846,0.5564966308978816,5.153427781107858,5.772917478013488,0.6369125150204853,0.3630874849795147,7.089709850725076,5.35293329697064,0.5534464017795058,0.4465535982204941,6.197657570867546,5.567054944236732,0.5373298004906697,0.7374333593138351,0.6041772661524045,0.8740578701079847,-0.29618477268989807,-1.2309029920684442,-0.1350072291497339,0.0001594086924430708,0.0357400104313805,0.5772830577929485,2.267255660323375,2.365738256764259,1.2321104266025715,5.722676396630196,4.610149616695047,-1.0,0.001612592226629756,0.3282722789221086,0.46409831483212294,2.430164533367156,4.77224174921845,1.4551430276192234,1.2535704828363898,1.0927798772945927,1.6065282150352809,1.9128657062715415,2.0092971574861496,3.566838019413087,0.9946037110464245,27,male,3,11,Pride and Prejudice,calmness,4,1,2,0
49,-0.17000367551970302,-0.16888947170713425,-0.13832211713280082,-0.1081430684063203,-0.10803612048490617,-0.10361764468741294,-0.04075168907170719,-0.04053887648256611,-0.0362998922371809,-0.05312248379912087,-0.08871682690718709,-0.3003065927497704,-0.13957380073041958,-0.13890112936269458,-0.11255578123356698,-0.3209149429513956,-0.3083370520141496,-0.20631046131998418,-0.14476131827012867,-0.14602885246066485,-0.1551993972245079,-0.1395475368495436,-0.13655028968118604,-0.13759431584536058,-0.10238008475282709,-0.08751984356611767,-0.013590454961842184,-0.17372346435127148,-0.171502036503594,-0.10652799977417915,3.2491878724852885,3.179512258997096,2.8369327600603413,-0.05845396187205141,-0.05819175339052368,-0.05970957483030751,-0.19205653669998923,-0.191481342667214,-0.18657397790944663,-0.18294504436015926,-0.18308374541002614,-0.18809035850504907,58.67340429720188,261.8666666666667,8.451069239912634,,,,,,,10.687245450059669,10.719835348293504,0.03227241308520609,0.040811782523140286,262.0,8.8956,0.03395267175572519,12.0,254.0,269.0,0.0,1.8181818181818183,238.0,280.5,2.822368421052632,31.25,,,0.006718413768476924,0.012125895386187264,0.0021153993231322796,0.554288232865895,0.32060338169745517,0.5784425336991071,-4.413022710579695,7.580068267981592,9.273129481414085,0.817419372132796,220.82692316977892,1.2233739310400962,3.0510146419374777,45.377824368792716,0.6333333333333333,0.630921105007563,0.98,0.05232909860859044,50.29517475932434,50.29918565394996,50.29098163201013,41.324337234296635,0.42379228614522735,0.5762077138547727,4.934537663310475,5.754027357801853,0.6317218488945213,0.3682781511054788,7.370366706024248,5.627487407251896,0.5484325011761637,0.4515674988238364,6.271840532622617,5.691127586222507,0.3732655705239163,1.1593851156190682,0.4390468936605837,0.935995152402379,-1.5093066489166636,-2.4753806970545207,-0.07493454891284765,0.0005099141947053076,0.09018633011896353,0.4363871304393151,0.518300413857472,0.4717672198150934,0.28776241898253596,0.7887478035722819,1.0068433863367132,-0.8552721894462563,5.809723524013935e-05,0.011934134988535336,0.7527533640928117,2.293463939610001,4.9461970836913185,1.5009394608479565,1.1682257134780796,1.3299256838697682,1.7730988269308683,1.8358524107980787,2.089703020784574,5.913522400376264,0.9152097296487225,27,male,3,14,Gentlemans Agreement,anger,3,2,2,1
50,-0.20201987318928455,-0.2000940936394655,-0.15914171830804522,-0.11605108973303926,-0.11572262252036536,-0.10944457358855766,-0.11034643002166054,-0.11016424437482801,-0.10583033486622766,-0.30131243756077886,-0.30161526293264657,-0.27355164320432424,-0.2030515241145613,-0.22039045038815247,-0.22045267879755948,-0.18385766544065965,-0.1783247347941579,-0.1286612485818163,-0.1718141150826113,-0.17305388579330516,-0.18177079385712913,-0.1945139896762874,-0.19139589395794718,-0.19160419635708678,-0.20900085935424964,-0.21071577983769912,-0.20047941886017817,-0.18591555118686137,-0.18675516140709594,-0.15908765378063594,-0.252558799715893,-0.2505556335565019,-0.24602583519561136,-0.2803336282806608,-0.27980119915360996,-0.27267586161183244,-0.2452178022209707,-0.24487587067691785,-0.24051358465978606,-0.2308252534707665,-0.23091922050988747,-0.23504546337423934,59.28196391166435,259.15181518151815,13.498713446357307,,,,,,,11.152238032851088,11.170746752567911,0.0520880528538933,0.04303360956603644,262.0,11.8608,0.04527022900763358,16.0,250.0,270.0,0.0,4.125412541254125,211.0,284.0,3.9098401598401598,62.5,,,0.01106947181794621,0.012650293134840234,0.0012900171915236937,0.875081515345305,0.4426084687245583,0.5058076681726486,-4.370101220416254,7.898910779658373,17.400381475339895,0.45395037576559216,431.7933253105489,2.20288511480586,3.342245772459176,153.32414459733167,0.5924092409240924,0.5867346938775511,0.947825648608684,0.044642857142857144,49.973594525780705,49.97966382570613,49.967599744547954,43.87755102040816,0.43102845064998174,0.5689715493500183,5.185826288115609,5.9581649378009,0.5939338958183895,0.40606610418161043,13.409785614605992,11.0877322813944,0.5660978779507673,0.4339021220492327,10.166522101902778,8.900578456681572,0.7936983073081179,1.5969815424833598,1.110378593345758,1.5921890785497976,-2.748402307616658,-3.779818389570421,-0.19834459754815184,0.0014450192176269348,0.19487384020859913,1.0852398788653317,0.9554798591985314,1.5002593264380732,1.0225193968388075,1.8589055703208643,0.6709491137099398,-1.0,0.000641903911824342,0.07968077257163392,1.120177029026996,1.7265290889126783,5.495737941906094,1.2965910666231744,1.2391741731125012,1.3453341588652057,1.8836452561171346,1.816702104814039,1.8873040132760617,3.913745921421613,0.8297584372802806,27,male,3,15,Psycho,fear,4,2,3,1
54,-0.15181569070472156,-0.15113318871599832,-0.10543734275342087,-0.07792465470874002,-0.0784877132266483,-0.0646372711625029,-0.10028700326433063,-0.10022433037492087,-0.016122242335930015,-0.21588965744111197,-0.21578642210113305,-0.055024580855267506,-0.27753783914301555,-0.28421933787837456,-0.20682606638824685,0.34801917273496463,0.4513564940235091,1.0601387788810042,-0.1824501144871649,-0.18367862195366397,-0.1861007705707521,-0.1761607919101997,-0.17281600656618284,-0.16228185183804966,-0.15176058734089,-0.15079233546323392,-0.1354854879448414,-0.1684624062786796,-0.1662972140970277,-0.1341042944058002,-0.16666814149655346,-0.16641856314755096,-0.17043872078628097,-0.16469001998065066,-0.16433858810308266,-0.07988607215890274,-0.2157782932898783,-0.2153243872834468,-0.20317416210809758,-0.16206401557272931,-0.16224797853219555,-0.15161559726885035,60.28199716056868,254.9070351758794,15.270085638714736,,,,,,,13.0975322151068,13.129669451526805,0.05990452850557333,0.05138160391714884,256.5,11.8608,0.046241111381322954,16.0,247.0,266.7,0.5025125628140703,6.532663316582914,197.0,283.0,3.71995108315863,78.125,,,0.04009109941414612,0.07330551518579961,0.006156609693935079,0.5469047701162337,0.3353410810871326,0.6131619982476084,-2.6131200159225614,9.28407830391246,19.477291650632818,0.4766616934775395,568.0904932625172,2.097923995236983,3.461387057013031,163.44751919499254,0.5452261306532663,0.5354662698412698,0.8725490196078431,0.04794520547945205,50.80372096863627,50.75735701450462,50.84670103156644,44.88260582010582,0.521789186953081,0.47821081304691904,6.706877000277274,6.420717458891848,0.4790722142514142,0.5209277857485859,13.481212088973571,14.05780154219256,0.4869819555778937,0.5130180444221062,10.647191033989024,10.928116768816395,1.0263316077004556,0.6401525318548553,1.073666313212307,1.1834617077758518,-0.6937423630447905,-1.0741575644569656,-0.3365438794093797,0.0006713702201139155,0.035518437735648264,0.8981369371180457,1.0373095276946231,0.6603062695593391,0.6410378582439,1.0,1.8825564461942905,-0.5185504496279382,0.001967302926777335,0.13700864110919614,0.9833836291471207,1.404762079072556,5.516073740889282,1.234117389844319,1.3125968988420509,1.3667675001247832,1.8006619015374952,1.793702917896126,1.807602350022177,3.475144923790518,0.9977499504227884,26,female,4,1,Searching for Bobby Fischer,calmness,3,3,1,0
57,-0.12738851205523957,-0.1271912870129343,-0.10994989747059822,-0.09936906036254309,-0.09944613348707519,-0.09686888741930384,-0.05161251963840692,-0.05135981887828019,-0.04677006624584115,-0.11877942159107861,-0.11803230832355445,-0.11221965953625211,-0.24767929997847818,-0.25270557359313633,-0.19851499552250707,-0.14176054982747535,-0.1383313689856027,-0.1045790659421374,-0.16428914428055086,-0.1655165604345285,-0.17423167283382562,-0.1629416927426604,-0.16021374563676966,-0.1616436384537493,-0.1432089822859877,-0.14201587667927226,-0.12552407673312346,-0.15969923851883805,-0.15756060135312713,-0.13345252641926067,-0.14491547117968698,-0.1450415137147561,-0.15081754020289856,-0.11697227763869378,-0.11657748098465696,-0.11539234124775945,-0.20902675240571011,-0.20852637476583427,-0.20378797490988296,-0.14641400320183054,-0.14657897123428926,-0.15213135211471165,58.20938265584307,263.925,12.06326980348343,,,,,,,12.196329671256217,12.234863962990548,0.04570718879789117,0.04621134667521537,264.75,11.49015,0.04339871669579484,15.25,255.8,274.0,0.0,6.5625,224.0,288.0,3.3333333333333335,54.6875,,,0.007940500617955622,0.0408046854051203,0.00710532518018839,0.19461473746896665,0.14218221326347327,0.7305963702484248,-3.1989956019918355,8.651355275125534,14.766077675737183,0.5858933008013313,401.3282508009022,1.7068041599289934,3.310467602101757,100.81110300685341,0.5718749999999999,0.5639404884760921,0.9186046511627907,0.024863387978142075,49.98474679682734,49.98718134523377,49.98196837741432,45.573185414516686,0.46944418305230684,0.5305558169476932,5.927554117179807,6.301590637626035,0.5437474725839213,0.4562525274160787,10.887702349179872,9.972920568193313,0.5247479818012344,0.4752520181987655,8.765861433460799,8.341975096913478,0.7222472691578439,0.6543135029365952,1.0872835265426026,1.0136975125753953,-0.5752204318814389,-1.575220431881439,-0.6960136233569235,0.0004089512155850982,0.04734135503915887,0.7693219853995016,0.42883933107008976,0.36711052163843605,0.5815301871734809,1.0532557346180484,-0.3420758247079869,0.0,0.00024264071021236005,0.018637254152954634,0.7955862135839131,1.6569739405426294,5.173821029395997,1.3942035425559327,1.3712491797897743,1.3669187848329658,1.8406818694022469,1.8298479734813125,1.944763312897325,3.6905971450755737,1.0296461383435354,26,female,4,4,The Ring,fear,1,5,4,1
61,-0.1391480530386683,-0.13874790647777877,-0.1180326888949615,-0.10498476727841773,-0.10495989455192142,-0.10127784958823187,-0.07655227533820706,-0.07645628066258975,-0.0727889238567246,-0.16473509028371203,-0.16438283090192637,-0.1537109608685116,-0.26609728049227,-0.2721742666885156,-0.2159880673715774,-0.15795773446933037,-0.15376301313695745,-0.11405470073558269,-0.14076935575252036,-0.142078868588504,-0.1577380945118782,-0.1666840810444114,-0.16380236123126862,-0.12487595640050335,-0.16558723542867407,-0.16488871919291267,0.018587600542515435,-0.16644991627971545,-0.16429804133452236,-0.13950228594584024,-0.1632120052297203,-0.1630350761886775,-0.16740595016354154,-0.14663921724448925,-0.1463147789025883,-0.14464714846404336,-0.21274947155578627,-0.21228404482609292,-0.20770822391120317,-0.15627930558701544,-0.15647285964192004,-0.16209752897780996,68.6786610657839,223.6726057906459,17.691859302947066,,,,,,,7.847459381029689,7.8562209542879184,0.079097121618489,0.03508457977359458,226.0,17.0499,0.07544203539823008,24.0,209.5,239.0,0.0,0.0,174.0,259.0,5.016916354556804,78.125,,,0.006298820729588452,0.0022231928604896636,0.000652537158804522,2.833300069440888,0.6865548104164533,0.24232081516365625,-6.108821429580554,5.555187111276837,24.409451505348514,0.22758323069377479,425.99745951182024,4.394145559323278,3.336368921960736,429.0343241058983,0.5233853006681515,0.5110641296687808,0.7926854580929055,0.037042682926829266,49.89813044284374,49.90625257601459,49.89034155840298,47.26459586924703,0.4651595219125181,0.5348404780874819,3.7887679861480223,4.062685430459007,0.536624761947353,0.4633752380526469,17.881048953044306,16.61589166787426,0.5331041633938294,0.4668958366061706,12.924527894492261,12.0953365677194,0.9398814113206335,1.392217092968764,1.0062078573805089,1.6359899578050157,-1.7438654475102604,-2.7440720374480927,-0.04763136441229693,0.0011555493376480702,0.15115829262577501,1.2664811067542971,0.4626486238525219,1.2142258052754904,1.1306232890069932,1.0206243606839949,1.0209943551229133,-0.6805108658034105,0.000185158574175695,0.01826468134904822,1.140003426629753,1.3088730576368328,5.923226713877211,0.8659303948589392,1.436479355145377,1.2945173356638429,1.842505896050645,1.6953732266494066,1.846722188767098,2.6643155504356932,0.6279249271975873,26,female,4,8,Crash,anger,1,4,4,1
64,-0.21818947399348426,-0.2200729609168345,-0.19432690206285894,-0.1480009725427997,-0.14735613082333537,-0.13578605442007577,-0.25144882519725203,-0.25897025803867857,-0.31450209732641476,-0.5099885011801435,-0.5113577518855564,-0.45717488310288634,-0.36863433322201966,-0.3838442673948899,-0.3380229449041563,-0.29689596411942465,-0.28736789373575233,-0.20033256531380805,-0.22201717161110834,-0.2259086831699563,-0.2527732361971922,-0.22146978992171043,-0.21708248250113182,-0.22541661846143157,-0.24598920207358513,-0.25050440252477196,-0.27062292767855406,-0.21684953781084973,-0.21543810387101103,-0.19170831738848088,-0.2678948773136392,-0.26904712550538185,-0.2876053915615186,-0.29605444790576313,-0.30152405364059703,-0.34086389551655766,-0.25227625996265324,-0.25266414636913886,-0.2506931910985379,-0.21820096362177235,-0.22115002371683304,-0.2430744836942282,60.095977487202894,255.7,12.281255119739383,,,,,,,13.290730926713376,13.361608053922996,0.04802993792227454,0.051977828466003226,257.0,11.8608,0.04615097276264591,16.25,247.0,266.0,0.0,10.0,218.0,278.5,3.8,54.6875,,,,0.07366097346725145,0.028259810407501654,,,0.7227425530000103,-2.60828223520363,9.448083662485738,14.667741295228474,0.644140634007445,435.36821051219505,1.5524579882698588,3.3458268075822675,91.0842521002715,0.6105263157894737,0.6174749163879599,0.9558270676691729,0.045008912655971484,50.446186674762046,50.44186792232052,50.44912395386727,47.539417104634495,0.4999222259328997,0.5000777740671003,6.6804760362787015,6.681498600283712,0.4188636717923455,0.5811363282076545,9.4909611152699,11.180239348109643,0.4426436065995424,0.5573563934004577,8.207427911021934,9.209998428408095,0.9832260410730691,0.5688807038086401,1.2478411154424462,0.9638652958685592,1.538723801700895,0.5079347726269169,-0.9991780765467614,0.0003821573533423668,0.03412185535223586,0.9730335346320641,0.5890399900923811,0.44414683032571123,0.7386668253719018,1.1203065715720564,-0.12891509905287912,0.0,0.0014418678505170401,0.05993058472229355,0.5435814236401446,1.4140047580905948,5.127085069347793,1.4740057389612238,0.9498946006204134,1.1439345157229577,1.5655486129796312,1.825860517369626,1.9182425906883405,4.247892133634652,0.8990328727189718,26,female,4,11,Pride and Prejudice,calmness,3,1,2,0
67,-0.11452354497799534,-0.10420082494422528,-0.05911768853766208,-0.11746741767268462,-0.1173255872804559,-0.11867608360856001,0.32442318223601924,0.3253286110504734,0.3320534742481577,-0.33247053923223735,-0.34459407961129185,-0.31689657885684597,-0.33061417463500214,-0.33990236133573803,-0.2887900664679746,-0.15119095321866613,-0.14639957406902743,-0.10769010291413471,-0.19482984274592716,-0.19624834173783093,-0.23745440880104252,-0.1877408545163314,-0.18399668629298985,-0.2081790699751561,-0.19019256424447892,-0.19031169938389647,-0.23600980086677364,-0.16058680243237552,-0.15844862599871834,-0.15548698619261275,-0.11098488245628761,-0.10786509477083692,-0.11735890282416675,-0.20908541262816008,-0.2082576597475037,-0.27713932018911774,-0.2336983519746484,-0.23331021448708014,-0.23626198734232856,-0.17946276694115382,-0.17960268986304959,-0.20821043721570415,56.880208936589256,270.09375,12.70553128062793,,,,,,,14.499422069318014,14.544765361763186,0.04704118951522548,0.05368292331576726,271.25,13.343399999999999,0.049192299851175306,18.0,260.8,282.0,0.625,14.6875,227.0,292.0,4.324324324324325,54.6875,,,0.011268819082659571,0.036318612283729595,0.0023630900458415935,0.3102766236132155,0.2255981820029651,0.7270872495757303,-3.3154608576615496,10.284702218069956,14.739538781253525,0.697760662201046,476.24253506426976,1.4331606126289629,3.3847922329078237,84.49624381996821,0.571875,0.5696329813976873,0.9147727272727273,0.0333425951653237,49.51333507575666,49.49445605832233,49.53127475302776,45.959024635495226,0.4987239474375005,0.5012760525624995,7.263319890013273,7.281901007809312,0.5067824477545599,0.49321755224544006,10.492895528563679,10.35144952434947,0.5041419661576686,0.4958580338423315,9.023765189447417,8.949277337011623,0.7536112928509963,0.7756805074797948,0.791925571954722,1.0822795477461633,-1.0485070224681663,-1.7462710097623881,-0.12565277679075418,0.00029940160168686806,0.03578225898299152,0.790185549129146,0.7620485028687369,1.1311153959118962,0.7500911444775278,1.922108094109463,0.6546619765054602,-1.0,0.00010772965594780945,0.032580090245172805,0.8329203441988557,2.0682708960734937,5.380111977487157,1.5014152566251386,1.3540583594615565,1.3325308524747927,1.874490586624884,1.8650812189704216,1.9472577281093082,3.856342269159219,1.0067651130470123,26,female,4,14,Gentlemans Agreement,anger,2,2,2,1
68,-0.215918750313903,-0.2137978429392173,-0.16874980701524567,-0.05698937868530957,-0.05797426366543856,-0.06443079448018466,-0.1717693069797609,-0.17331718985822897,-0.2287426881233251,-0.3648358657027244,-0.37526319603829994,-0.34262664631035755,-0.30682648523746575,-0.31602042040157685,-0.28982226953846696,-0.21008852258390312,-0.1977598639312439,-0.1217218374645472,-0.1941053683327115,-0.1957311366129451,-0.19806158743241273,-0.1884282470471063,-0.18487691126650957,-0.20417474167862898,-0.1974371271397792,-0.19812069348950664,-0.21917787211720016,-0.18500488869962103,-0.18312017991573085,-0.16514552813619612,-0.20744312144809277,-0.20632378792307896,-0.20611426179360826,-0.21757660555554806,-0.21851688490083054,-0.26817467121174265,-0.11465152147834853,-0.10398632651738554,-0.07861822572358639,-0.17650848058995333,-0.177095544720549,-0.18239036957886334,57.41136339180022,267.6279863481229,14.336877729842497,,,,,,,14.447590474456408,14.47228872757968,0.053570173753030054,0.053983855244732856,270.0,14.825999999999999,0.054911111111111105,20.5,256.0,280.6,0.0,16.21160409556314,225.0,294.0,4.7645425700687465,62.5,,,0.04089490709749745,0.02108697134710956,0.006825106644926196,1.9393637141409255,0.5943430283680572,0.306464926404961,-3.8591046345790936,10.233453498561223,17.52427899453928,0.5839585996677525,563.3940529767663,1.712450177192208,3.457782353682532,120.03781777750089,0.5392491467576792,0.5397988505747127,0.9262820512820513,0.00816340130614421,49.778193392948566,49.784601152863985,49.77195295312216,49.481561302681996,0.4996801673419299,0.5003198326580702,7.233881185596073,7.238510666456432,0.5078318674528524,0.49216813254714764,12.48806203839586,12.293940290877416,0.5057587602690364,0.4942412397309635,10.204944010336444,10.088066377054666,0.7329523373775118,0.8361940834723778,1.0050151201903224,1.1426085478213672,-0.847890308191328,-1.847890308191328,-0.3357101974458041,0.000552514627601291,0.0617470038297417,0.8884222678691094,0.394079368354076,0.4943428995150334,0.6913825836920714,0.9838637448515064,-0.8541332639934933,0.0,0.00012624216115646915,0.01409303302066246,0.9390033509938354,1.7724566801937351,5.618724681771559,1.3034691179869506,1.6685524138375873,1.3715438326148761,2.2696222100201444,1.8713248534963054,1.91582062615937,3.7340702278888926,0.797100922699775,26,female,4,15,Psycho,fear,1,2,2,1
72,-0.1497481570617723,-0.14908490919594725,-0.12490450748724662,-0.10811716743888047,-0.10801440709542987,-0.10361149350859802,-0.0825024109249437,-0.08235349589736889,-0.07829917162816527,-0.18990667316032286,-0.18960328848398658,-0.1753151598756577,-0.26088629643135597,-0.2666493197969123,-0.21092765625601115,-0.1507188513867827,-0.14685683301986238,-0.1097756893937544,-0.17951731705921065,-0.180735316007906,-0.18929378768733415,-0.17420911749586943,-0.1709467076960149,-0.17201244446626113,-0.15260519568389355,-0.15161334529672024,-0.07384553382098151,-0.17141642212068348,-0.16922012154657487,-0.14372188982317557,-0.17305619879131048,-0.17264618500108367,-0.17584961416719186,-0.13883835335863853,-0.13846878773511395,-0.1367519202909363,-0.2173786464737333,-0.21692160722012888,-0.21231370003485403,-0.16392165783916743,-0.1640850498704397,-0.16942716440747282,80.51124765826441,190.7875939849624,12.984529981763837,,,,,,,6.629289571086092,6.641772425649734,0.06805751780739383,0.03474696558847395,190.5,11.8608,0.062261846238633234,16.0,181.0,201.0,0.0,0.5639097744360901,155.5,226.0,3.940956979806848,62.5,,,0.021677115074315162,0.08827684231144955,0.05635818448486293,0.24556101577618145,0.1303403875360184,0.5307881046056313,-2.4272859752394402,4.696442321274751,17.778498671400943,0.2641637222051493,262.3099239591071,3.7856537648660633,3.125776253811435,269.21250674378973,0.46616541353383456,0.44739130434782615,0.6480237154150198,0.06252379139703083,49.727774246827146,49.721488349583325,49.73544787595752,46.91541501976285,0.4579329279217097,0.5420670720782904,3.1782027811013647,3.4576678199141933,0.5458115338132021,0.45418846618679776,13.134519571193355,11.981491707343508,0.5400845667738545,0.4599154332261455,9.555585857015842,8.817926954512927,1.5069954452745304,1.2797340350925142,1.628992024177586,2.071394904279769,-0.8249580481938015,-1.673730066115287,-0.15520668475514407,0.0009611239870073469,0.12591611295428098,0.87576119527961,0.3250660220364787,0.7115041375637481,0.8740371485819874,0.9931304690556544,-0.9681907931758797,0.0,0.00032858332171533544,0.014340263921464088,1.0224483674443194,1.4544825500614031,5.524088410031194,0.9311049577112607,1.508788804509153,1.3901065755899584,1.9784562789499476,1.6976092256773816,1.5881502009736894,2.8429974125262754,0.7570754168704125,27,female,5,1,Searching for Bobby Fischer,calmness,4,2,2,0
75,-0.08203738577829478,-0.08285718102063934,-0.07997782568767166,-0.10509032690633408,-0.10505309591654563,-0.1012999288116071,-0.071488282933216,-0.07132270760455396,-0.06722505167353368,-0.15178548076287235,-0.15128455224809814,-0.1417784703762203,-0.16537239455990124,-0.16603277027291616,-0.1226130859827338,-0.17698670671601296,-0.17177553905627546,-0.12465789867437745,-0.1191884582005783,-0.12050778047063469,-0.13008750089043697,-0.12592743759044173,-0.12500797033682706,-0.1279548452682959,-0.1502140020862334,-0.149185204852301,-0.13352142130830968,-0.13096290948072767,-0.12900753404264198,-0.10853733833355388,-0.08447877910932837,-0.08584637320086418,-0.09765920251852639,0.21832195504853696,0.14801220723119268,-0.13700005101183896,-0.19521201537568003,-0.19466218854265963,-0.18985151934323344,-0.11437273310565033,-0.11459057238710593,-0.12084113112779353,67.55026981497636,227.43279569892474,9.577733187938902,,,,,,,7.340995969901364,7.360675833014367,0.04211236532309817,0.032277646965300597,227.0,9.6369,0.04245330396475771,13.0,218.0,235.0,0.0,0.0,207.5,253.5,2.953125,31.25,,,0.014607115538227137,0.03579662122168788,0.0071645188938227345,0.40807093103821934,0.2537403765934798,0.6218093488459577,-3.329912283305016,5.204783795640397,12.345726084386207,0.4215847621968445,201.86939208199965,2.372062524770006,3.012032523030007,117.1390261538555,0.5564516129032258,0.5453065134099617,0.8084192439862543,0.08850250626566417,50.488902795457285,50.45162505986272,50.52921431603487,45.201149425287355,0.4450567705571079,0.5549432294428921,3.4723086580931564,3.877437359519064,0.5379176013884177,0.4620823986115822,9.054458546709824,8.39180628981802,0.523889306322056,0.4761106936779441,6.857128551517886,6.536824232908968,1.0070125917011492,1.339517052293134,1.0948079756219835,1.5892547808389734,-1.2209238466629735,-1.9732322127289024,-0.1311510912845405,0.0008665293303557354,0.12549759748007405,0.8817957772010188,0.518828641578433,1.0231218755431057,1.140693680025561,0.1496212324981574,-0.8444852138058369,-0.2737815872701054,0.00015308034623845112,0.02145023898939594,0.76438637287445,2.055592148925825,5.072960005567986,1.2445099964914186,1.7744877231353182,1.4129133614608178,2.0571637436829064,1.8438173216801137,1.8279102596357562,2.983976736157821,0.9322615734165844,27,female,5,4,The Ring,fear,1,4,4,1
79,-0.12257137771897729,-0.1225750715215432,-0.10724017105204679,-0.07869263870615957,-0.07922433035389524,-0.0810777209193414,0.04085414584762422,0.04101142065881912,0.04456754471555617,-0.11286843791836318,-0.11235705078582528,-0.10876962102564867,-0.2516389786568455,-0.25698806757293235,-0.20291012028868524,-0.08948527491764395,-0.08886078204492762,-0.046002485881141426,-0.16772247494491183,-0.16900197983199827,-0.17802865132260862,-0.16522740440651337,-0.1624337113080746,-0.1640552005003503,-0.14649794587994358,-0.14546356179161743,-0.036774543639809754,-0.16093977461106845,-0.15883897448721307,-0.13482882511322622,-0.147800433088052,-0.1479771820206441,-0.1540993789982411,-0.12621766550364813,-0.1259796916644097,-0.14340075421366624,-0.210571614529924,-0.21010931807317834,-0.20559322182846426,-0.14839913152797454,-0.1486280699797678,-0.15456581636328928,64.50590918797111,238.1595744680851,12.93336062270481,,,,,,,10.093050448921915,10.105007775795556,0.05430544074165268,0.04237936042274039,239.0,13.343399999999999,0.05583012552301255,17.75,227.0,249.0,0.0,2.836879432624113,204.5,269.5,4.0318627450980395,54.6875,,,0.018617577421290804,0.038409228363120676,0.003541049557568881,0.4847163119736539,0.30738384250878076,0.6341520455781597,-3.259457771639918,7.1453195222078305,16.856824989451148,0.4238830941335666,378.3966456717328,2.3591423906976896,3.2849173165989813,159.0706820226508,0.4940898345153664,0.4803796707917818,0.7014214308028741,0.02372687828271295,49.872376620477894,49.875053845657355,49.870005991015006,46.19668388802114,0.45850052777974565,0.5414994722202544,4.838279026524008,5.257996499250147,0.5411372157846914,0.4588627842153086,12.399339237318548,11.417336049214276,0.5285539378866239,0.47144606211337625,9.411639095236051,8.88842847492229,1.064740902091177,1.8167190015258006,1.1838183637629043,1.9491384435095291,-2.5113468569123922,-3.463422938223296,-0.07892956202594023,0.0012382406815454332,0.22859604096947445,0.7350974898855802,0.05781160371164451,0.7929090935972247,0.7640032917414025,1.1797986062185997,0.18113376375718526,-1.0,4.489032195179918e-06,0.0004033781575904897,1.2384361862764521,1.791165516674409,5.612527909181669,1.2868025958190747,1.4131726856163294,1.3172389448627784,2.1591031416209656,1.8597207350116194,1.8702228185935772,4.17938073321519,0.9384524357374886,27,female,5,8,Crash,anger,1,4,4,1
82,-0.142859287296659,-0.15082613874121598,-0.12705863394984554,-0.09629226063634795,-0.09590854221743528,-0.10054020639164567,0.020651479794659852,0.02732813458551964,-0.11597345902550658,-0.31578632665151457,-0.32971431644510835,-0.39277308647909703,-0.2181748650847933,-0.22073368311550856,-0.196453922256185,-0.07972018118188394,-0.07493312180928495,-0.1296966313383013,-0.146431666680156,-0.14991764302362576,-0.18405933870611377,-0.08047654593275572,-0.08175299442918585,-0.08644880365427852,-0.09987400830587698,-0.09540849480821809,-0.15738926238531012,-0.170849765589766,-0.16795394724782522,-0.1552488099844055,-0.04605377777776192,-0.04382081202865559,-0.10785618400533815,0.0632259964748663,0.055608661144063994,-0.1415158435863746,-0.13268823128544968,-0.13189260875229372,-0.12667030737570745,-0.14949444018023011,-0.15631233034158842,-0.1779762456115714,70.01407999733169,219.4181818181818,11.932428644801426,,,,,,,6.844918364187624,6.870201798796752,0.05438213253762665,0.031195766492402997,219.75,10.007549999999998,0.045538754400497,13.375,210.0,228.2,0.0,0.0,185.5,246.0,3.099206349206349,54.6875,,,,0.02601367042121199,0.004118916990577802,,,0.8633066237724933,-3.6491339972196526,4.8579662800492,16.084234564072606,0.30203238205660227,245.47407853217297,3.3109126920224314,3.096973386603028,213.01369599040612,0.5545454545454546,0.5371503496503497,0.789057239057239,0.14583333333333331,47.351123172018696,47.391202871983864,47.31351051284828,46.76573426573427,0.40670025386134073,0.5932997461386593,3.1009213849165995,3.7453490999756207,0.47064175151244814,0.5293582484875519,11.030916426228409,11.699934813924393,0.465293215393788,0.5347067846062119,8.102542013233737,8.686792730124743,1.2074604567661278,1.0861906062997684,1.5146023212715343,1.7505557599160118,-1.1168100022576564,-2.1351005937349163,-0.28603391707581105,0.0007857727932355188,0.09810409152449587,0.5929130321229706,0.31285698037849596,0.4532686257702774,0.5248312376771677,0.9975558041929571,0.5904919617398667,-0.2712609390389389,8.102389698856848e-05,0.009714006737910643,0.7702205022174629,1.710248558660441,5.114552570798539,1.060780907815417,1.0310526228039962,1.2870358251639666,1.4727948688473294,1.774058150848057,1.7652842240644424,2.0608059812553527,0.7706090583550751,27,female,5,11,Pride and Prejudice,calmness,4,2,3,0
85,-0.14398359940742483,-0.14330994150470028,-0.12100984949023846,-0.11962353309818309,-0.12128390542682974,-0.11713417515398407,-0.0548308914745783,-0.049579620571835376,-0.05875243913226513,-0.12518869296727492,-0.12721935203867973,-0.10500252027988928,-0.2694286333424309,-0.27763949683016464,-0.2299217747467431,-0.1833280573388656,-0.17925933223657797,-0.1294148500104414,-0.18385277131381839,-0.1860019830542921,-0.19286896039370416,-0.16809794316767307,-0.16556315598235277,-0.16210116474879163,-0.1783813594824366,-0.17935623838134918,-0.16090071583501422,-0.19635637907735393,-0.19395364153655756,-0.16365170084750347,-0.19168708639721962,-0.19154509614542461,-0.19299826072698903,-0.16962408599199696,-0.16713355480528835,-0.10581404301541611,-0.2219659134773708,-0.22151905680700476,-0.21690139594396116,-0.15907389867891492,-0.15924261519477576,-0.16468179336744806,69.50927742500923,220.99487179487178,8.650411066633437,,,,,,,6.606966760556325,6.624060133492852,0.039143039819778166,0.02989647093118493,221.0,8.8956,0.04025158371040724,12.5,213.0,228.0,0.0,0.2564102564102564,200.0,245.5,2.9572610294117645,35.15625,,,0.040479271120497644,0.07259230378504503,0.008283709116245638,0.5576446331489919,0.33356764204365946,0.5981762862196598,-2.6229172387716235,4.683917839380262,11.334778849940182,0.4132348657990037,166.7911957970703,2.4199331597625937,2.929141208450527,109.7178156582908,0.5128205128205128,0.4945054945054945,0.750030868008396,0.014925373134328358,50.02420135527589,50.02609988628077,50.02226376543689,43.681318681318686,0.4506778274883341,0.549322172511666,3.144396166837743,3.4715401062862687,0.5855328309906747,0.41446716900932545,8.673402429178322,7.29717578463464,0.5658645761982031,0.43413542380179687,6.523630283216802,5.714043514758686,1.1065597807910386,1.2028542276684757,1.1510255003480978,1.7079868946252763,-1.2707217487509945,-2.2730457170476743,-0.037032571942612405,0.0008212533625783346,0.11246541168718636,0.9598003603488838,0.6841295399213602,1.1408795700993437,1.0340768580467505,0.6900953133984369,0.2538044089257194,-0.6611649954497406,0.00024107083932705693,0.035002159897596544,0.8435150429741713,1.8847435756437099,4.994108908814415,1.2372508539328653,1.29665764551911,1.2629378828727356,2.0650029158540915,1.7878062256731742,1.7647282965487325,3.543900329872987,0.8777688823557244,27,female,5,14,Gentlemans Agreement,anger,3,2,2,1
86,-0.07717859602691778,-0.07916177811620696,-0.12931430024906,-0.08482067545092746,-0.08558436957086027,-0.06945437807107038,0.009521312358921402,0.007845102022796549,-0.013464695261212209,0.14352085154783242,0.14173101643610972,0.023865557767516577,-0.19165977985786836,-0.19503802440045917,-0.1720097459781448,-0.08976617896955047,-0.09020429207781756,-0.07307066637101936,-0.14061888482836138,-0.1425443197286312,-0.16221573186690866,-0.14170566385634592,-0.14051966845384076,-0.14560436423601078,-0.08955483101613766,-0.08843759881312215,-0.06966913405268305,-0.12800973834513119,-0.126621663911884,-0.13823996599785507,-0.032688818442867376,-0.03513277493974586,-0.019103396866313703,-0.025829269586275676,-0.026569060485475204,-0.061716442000503066,-0.15185081674256115,-0.14320918507954103,-0.11724957506297175,-0.10277638437783806,-0.10340739569560471,-0.18113458862825235,67.4635798915906,227.7246376811594,10.309432238395445,,,,,,,7.83565646703343,7.846071442371629,0.045271483768171944,0.0344084704528293,228.0,10.3782,0.045518421052631576,14.0,219.0,237.0,0.0,0.4347826086956522,199.0,258.5,3.4674242424242427,46.875,,,0.008964641955091267,0.014517667079955037,0.001133091055060682,0.6175359219747292,0.3641973379451542,0.5897718706711026,-4.232418176383462,5.548010322575095,13.39818972374266,0.4140871081414339,233.52465308442157,2.4149860585423237,3.075300718380517,129.42593620401476,0.5434782608695652,0.5281484570475397,0.7982059800664452,0.056584670766461675,50.982502099497374,51.01635813984842,50.95064468989033,42.61884904086739,0.4541715596402176,0.5458284403597824,3.739399167605538,4.0994080053510125,0.5521665759118795,0.4478334240881206,9.955914058894876,8.966116956203198,0.5378192277634368,0.4621807722365633,7.520088266446338,6.971250738783967,0.9997167288528752,1.7553861953990284,1.0623608516494927,1.6343542159781315,-2.123741726005342,-2.309299788090936,-0.17415298919516387,0.0011268584879097023,0.17106065838673012,0.7061937625246224,0.6056592807224832,0.9120229625860059,0.674118302842962,0.902347201732678,0.8110891160329933,-0.8926498273131227,9.003278019279422e-05,0.02168141047239188,1.2476404975731654,1.655487640449027,5.28082471294191,1.2397101320679773,1.4752202065705955,1.4443049115133777,1.8763816770604973,1.7858763163087747,1.8090421257598133,2.6424102036877457,0.8186091608138995,27,female,5,15,Psycho,fear,3,3,3,1
90,-0.20939806554491813,-0.20742709116467573,-0.1644792273947093,-0.1312763546685272,-0.13067335029564933,-0.12132376210904879,-0.28328082241893604,-0.2834584955331927,-0.2806584721319897,0.2205430785015768,0.22306910557111911,0.18644538188437534,-0.40096833560843087,-0.41420738040924193,-0.34041187553752755,-0.300093051063527,-0.2885821437711148,-0.1945059627427988,-0.2415892344890856,-0.24270028055378712,-0.25019236910162557,-0.22714651524226226,-0.22131134825134405,-0.22029377910474213,-0.1868833877873732,-0.18655752033699433,-0.17408292408344245,-0.18918924449105584,-0.18687882963101016,-0.15913954104492342,-0.1888728409254084,-0.1881444660972622,-0.18980711984694626,-0.17297788861349722,-0.17254952502657542,-0.1694548077009651,-0.2413124945288446,-0.2409525926148223,-0.23654547237914308,-0.1949676654049739,-0.195093794380173,-0.19985454902376362,80.71082491309186,190.37406015037595,20.9886934266204,,,,,,,8.46334759838647,8.477978713057183,0.11024975373111368,0.04445641208610393,192.0,25.2042,0.131271875,35.0,168.0,210.0,0.0,2.2556390977443606,143.0,233.5,7.094594594594595,78.125,,,0.0023455271490795916,0.014643926249881515,0.005661031287128259,0.16017224633268362,0.10355340573994334,0.6465151290224491,-4.223736300857442,5.994836238757932,29.074514704281672,0.20618906679498225,547.5695826158692,4.849933711709881,3.445409419117774,564.038893675507,0.5281954887218046,0.4907143837025859,0.7047073066514742,0.19215795328142382,48.71865597191908,48.68620648221027,48.76057701532678,50.11317648672748,0.5692175677050295,0.4307824322949705,4.523396999520346,3.934825314749364,0.5083514668178255,0.4916485331821744,20.728024807131483,20.383934917999866,0.5108382090556083,0.4891617909443917,15.002104307442487,14.679897316547937,1.5478186750060283,0.824654188702235,1.6271995915986803,1.5755929513930087,0.48982146167708773,0.5397906574624947,-0.5588252790919086,0.00015702519310777379,0.03095211766020581,0.7010148098260194,1.6533759469146077,0.9764724218973005,1.0736202858984027,-0.49383348173357433,-0.3863402299402494,-0.44278375055372454,0.00032359827846579006,0.14343586617728438,0.8988429182949114,0.9651790607100921,6.088962551444427,0.7187203357479159,1.208492094470547,1.234975044247579,1.6273414597230702,1.5725505400446997,1.5696790203108844,2.306695420632304,0.4693867584596558,25,male,6,1,Searching for Bobby Fischer,calmness,3,3,3,0
93,-0.24353923984561918,-0.24081241781646281,-0.18709704244928796,-0.07324082277049708,-0.07456703648320677,-0.10326234868698339,-0.015028154628435287,-0.01691025269516043,-0.03854162361599226,2.783972845627737,2.5752713827925366,1.2243672073841279,-0.06134024581648872,-0.08009807339648278,-0.17654815866486095,-0.16809212074037228,-0.16337510761598537,-0.11978853450415358,-0.14052962740987776,-0.14301030865797562,-0.14128507732332896,-0.16334345120381055,-0.1606118653444193,-0.16213296658872198,-0.12080077844753709,-0.1192153295040736,-0.10111508732520588,-0.2047043341300814,-0.20221370296256033,-0.1683519523106325,0.010874559842560638,0.007577537213337471,-0.013582515716226888,-0.11236135055493443,-0.11199624556398785,-0.11121640160614217,-0.2432238532951585,-0.24287157032032627,-0.2384805401033039,-0.19022836227043166,-0.19036738242122575,-0.1952263415771461,74.32157690038392,206.6985294117647,14.526163053410375,,,,,,,7.6629293620967385,7.681745012835467,0.07027705169526546,0.037072978223503514,207.5,12.6021,0.06074197324414715,17.0,196.0,217.4,0.0,1.4705882352941175,165.5,241.0,4.25,58.59375,,,0.022000725768677898,0.02907945184240482,0.002891635562969206,0.7565773788890123,0.40763650774237253,0.5387899668461086,-3.5377270787635564,5.431813989921901,19.848213590440402,0.2736667187055771,338.7019973193842,3.6542812856936457,3.236772746507797,290.12283354924796,0.5318627450980392,0.5169748036649215,0.803030303030303,0.08403954802259886,50.37754893038361,50.3864023887312,50.36722517920818,49.08785994764398,0.513979415378355,0.4860205846216451,3.89413569755522,3.7869442368354056,0.4879392225826499,0.5120607774173502,13.862538076848592,14.20103158451293,0.48973412966049557,0.5102658703395044,10.181765941116375,10.392794224033645,1.3385670104819525,2.0722031327117545,1.5533945389701624,2.04691499656877,-1.4930573403827907,-1.5884663763987068,-0.2622915753737349,0.0017326965506335949,0.2738744841964742,0.8250541760727083,1.652979139577758,1.1475987463157915,0.6864668275537256,0.6476356448608089,2.1728301776566763,-0.7792255729701559,0.00050172732493243,0.15966668723056412,0.900753237180336,1.632515470699814,5.597487984400901,0.9058254923675696,1.2622523658957523,1.2106263549487624,1.9602064496231715,1.7360263293394307,1.602763607438118,2.5949582746346995,0.7145886347914628,25,male,6,4,The Ring,fear,2,5,5,1
97,-0.27505443654338674,-0.2716361072464544,-0.20799913692852182,-0.13706774434368155,-0.13729058274685582,-0.13260015446811285,-0.3037258356187948,-0.30802136437438393,-0.311622828550157,-0.3263481102839991,-0.3422023792383692,-0.337139369739396,-0.3663717402535889,-0.3816254026761361,-0.3385525178511172,-0.28992260588535756,-0.27893782923712784,-0.18875558649381666,-0.2415726723977018,-0.24268565513225243,-0.25019046596203165,-0.226186072936579,-0.22039917135863482,-0.21942530827163184,-0.25982827321259233,-0.26094726309299954,-0.25510695651088666,-0.2312547552727236,-0.22887740629567715,-0.19678046311646652,-0.31365562852629736,-0.3104157483547736,-0.29990623075261286,-0.32126628130761586,-0.32071747021080926,-0.31218668091771656,-0.24053121562115634,-0.24017392124352763,-0.23578721906276326,-0.2532479395111861,-0.2533061131726067,-0.2569717780500603,83.45582800212088,184.07509157509156,20.70486357447036,,,,,,,7.384818894378971,7.39159508161341,0.11248052844794604,0.040118512674303955,187.0,16.3086,0.08721176470588235,25.5,167.0,199.0,0.0,1.6483516483516485,129.5,247.0,4.941277641277642,82.03125,,,0.004357449342533445,0.009112445893014638,0.00319217273786551,0.47821063372526734,0.2615263392027275,0.5468915291329752,-4.698145888826605,5.226647005993975,28.82998749905178,0.18129186273031567,473.38893330284475,5.515977795147723,3.382186592260914,636.1016908434915,0.4798534798534798,0.4502717918850708,0.6936123348017621,0.10748586795455792,49.90036443695372,49.89582327780198,49.90638050673323,51.72296641428849,0.5650226040274291,0.4349773959725709,3.928579700617318,3.4470123888647546,0.47339795456946654,0.5266020454305336,19.83609059415693,20.921148066814368,0.47631294585177936,0.5236870541482208,14.298680595144841,14.992956018113869,1.53489231094932,1.1732995216990938,1.6507536955630417,1.8257150105588145,-0.309666242650132,-0.5495035122935499,-0.3509397723451802,0.00033477019927631254,0.07084157816841534,0.6962590220510978,0.9010842672136044,0.8857827992621182,0.9941678580486347,0.2594052772735873,-0.4063856480327934,-0.3797181553616079,0.0003530079444254124,0.06055627293557653,0.9415716110227725,0.9223552197988827,6.173995437732797,0.6769972055067605,1.3021119690868823,1.1810425652175822,1.6658818346199618,1.4520240580737456,1.543847727304072,2.502732662472392,0.5911957481733603,25,male,6,8,Crash,anger,1,5,4,1
100,-0.19201313370745038,-0.19043728090455841,-0.15298392141742712,-0.12042939281198442,-0.12006139274295018,-0.11303113654112698,-0.13553266526597074,-0.1354945200555541,-0.131803260877798,0.1707043204321225,0.1728582995193671,0.14225576755232527,-0.2679935870461887,-0.2854675341129856,-0.23796481017094623,0.10695944159701234,0.0975783601245094,0.036144207522762636,12.693029553132138,12.669466991699402,12.43529186883276,-0.19057560272059293,-0.18624040169952574,-0.17028578334158245,-0.18115881377181117,-0.17889953505131237,-0.14764294616719084,-0.15334389779185495,-0.15127431648642914,-0.12814573440807686,-0.16645148011297314,-0.16622751548526288,-0.17028189102068672,-0.22403601618838578,-0.22359670474575138,-0.2187356504534316,-0.25313197717769953,-0.2528205254560301,-0.24852237617892345,-0.23516193059140483,-0.23525983646600235,-0.23934512822923695,79.34829404247505,193.56349206349205,19.040121208714048,,,,,,,11.490243789338816,11.536261812239974,0.09836630587797109,0.05936169224400925,192.25,15.937949999999999,0.08290485795454544,21.875,179.5,207.0,0.7936507936507936,3.968253968253968,156.0,247.0,4.433333333333334,66.40625,,,,0.10915478974779927,0.04596555671672409,,,0.7036784116916657,-2.214988774018763,8.157368956978296,25.446646006562766,0.32056796510901375,652.1236835349143,3.1197152300343753,3.521283653861677,317.54556794738676,0.4246031746031746,0.4000072432275822,0.5957446808510638,0.12,50.471775718375994,50.507668806310456,50.45739105344039,53.61437056352311,0.6258112743623025,0.3741887256376977,6.45218936758529,4.989959774455512,0.4970085637531702,0.5029914362468298,17.938863370760025,18.046574800427685,0.5089771212698253,0.4910228787301748,13.480325521755564,13.240283306780642,1.45519969454864,2.315257195398061,1.829667562824394,1.6831157297503054,-0.5934767824167579,0.768456104436483,-0.564304558332051,0.000372051316672909,0.25493606875577485,0.9463627704802285,0.4897215469182311,1.0565637448074672,1.1912235439393442,0.3466581477435664,-0.652719541762719,-0.22502782452747358,0.0003463071047066018,0.02413024243054111,0.6480884418660176,1.1663569818481294,5.558191249443712,0.8023657119452541,1.1429789127190613,1.3444014557244204,1.7799670728170016,1.5636807737601774,1.5237773397139107,1.9179866384625732,0.7475657060892769,25,male,6,11,Pride and Prejudice,calmness,4,2,3,0
103,-0.10541523753177197,-0.10567074339073579,-0.095284367513539,-0.10726124504451119,-0.10718324630648433,-0.10298107925631964,-0.0803976305530141,-0.08023770987276212,-0.07618923096502732,13.160313378352257,13.231623062266102,11.587076484824204,-0.26325060236712394,-0.28043147212247066,-0.2732021531649599,0.1865846695143492,0.17321441824552847,0.08174488256825942,-0.1523425808420215,-0.15360906271999786,-0.16265047718400436,-0.1568196122642489,-0.15441616615021517,-0.15620357329618148,-0.1222646763078417,-0.12070098713572364,-0.10248809768276261,-0.21447059538022092,-0.21201543533753137,-0.18115005041330062,0.13753023865655234,0.1316129151016015,0.09775680727269742,-0.09704405325597777,-0.09671450956506121,-0.0966075574187558,-0.19232178381512322,-0.19175463344145618,-0.18690132207363552,-0.17127396971904943,-0.1714189390999674,-0.17656359071016892,75.61547076909329,203.35211267605635,25.826564684849572,,,,,,,15.961289929577847,15.993960072313717,0.1270041621155506,0.07849089797756109,205.5,25.2042,0.12264890125503197,34.5,180.0,224.8,1.643192488262911,10.093896713615024,128.0,265.0,7.616858237547893,121.09375,,,0.008675005880253262,0.11987997225084983,0.006709429305343054,0.0723640954927181,0.06413369019813131,0.8862640036609756,-2.1212642689858607,11.309437625159914,34.55522170235687,0.3272852071388893,1227.7380852815377,3.0554689286670156,3.796071389956854,422.3287013456493,0.4624413145539906,0.4328205128205128,0.6491648411829134,0.1427536231884058,52.09512376379123,51.95060817428776,52.232622524660165,58.230769230769226,0.7368976461741548,0.26310235382584507,9.711233343984915,5.802785754984784,0.44038163814918435,0.5596183618508157,22.931225528113348,25.849949796847742,0.4690846881773258,0.5309153118226744,17.608935947699095,18.73361789590195,1.4765995986615685,1.8605102453020363,1.8505816278430214,1.694103972200081,0.14280115548836125,0.7859163212879658,-0.5860325680931189,0.000817022579546012,0.21380364040322833,1.0042084031656602,0.44278900080041717,0.8455049432938634,0.8103923130587535,1.0,1.1499920666776817,-0.5793153514576436,0.00028779105383668817,0.019849966698936843,0.8535151468062574,1.0501135774930832,6.1797997488130605,0.7854420241949894,1.5688964334586444,1.3052513238765004,1.8860328582066574,1.576436129348449,1.4224111682689844,2.163201337273778,0.7081072187530697,25,male,6,14,Gentlemans Agreement,anger,2,3,3,1
104,0.4527597251497845,0.4402738706881633,0.27498643021167235,-0.06451837152109574,-0.06534628494947027,-0.0702197034918756,0.2819622250027784,0.2828336753031289,0.28964946549539633,-0.06997983359563198,-0.06895773922719745,-0.06931249829719054,-0.20540968750740737,-0.20816544659292383,-0.15942749058868377,-0.13276071786266994,-0.12979471456421587,-0.09952482490606779,-0.19718847445663415,-0.19834891184355277,-0.20647176738999753,0.0595761861029892,0.05154989459424022,0.04164209204051024,0.3986398566518737,0.4106298606640839,0.47650130431628207,-0.16030614358552453,-0.15817625520813616,-0.13405686829410435,-0.07297674198535282,-0.053518058476433435,-0.0075974311070246235,0.08494918389696769,0.0852134181964227,0.0789463152572032,-0.05019045637819937,-0.04905890405004281,-0.0430650048357831,0.6623888960055734,0.6612720243423956,0.64040619734529,80.10026041934137,191.8361858190709,22.266873858187218,,,,,,,11.273826156051719,11.286397467048996,0.11607233412776502,0.05876798534080822,194.0,25.2042,0.12991855670103092,34.5,171.0,212.0,0.4889975550122249,5.256723716381417,133.0,244.5,7.942496229260935,101.5625,,,0.019168767041745916,0.11657496117057947,0.009086911518341767,0.16443310763477192,0.1323530578509551,0.8049053386966303,-2.1492209058313234,7.980688184117018,30.357720404256412,0.2628880291440724,761.1316559087707,3.8039338999136394,3.5884271832923145,461.91464784435215,0.40097799511002447,0.3761222068420012,0.5768101761252447,0.0641729581331503,51.086961808583425,51.20944083563484,50.99602474613048,54.172104673390024,0.6736701314636728,0.32632986853632723,6.551078771519288,4.55950506138543,0.46913293905633385,0.5308670609436662,20.792996779890842,22.11882548375774,0.4823576831270874,0.5176423168729126,15.415345081389727,15.969215484254775,1.5966665594795963,0.8703799549211353,1.7800992920580256,1.5632108011169275,0.515393751075063,0.706633888763561,-0.7631731938549635,0.0002042032911638988,0.0404011101571734,0.7448208118629642,0.39795197702804397,0.8722370295984124,0.8716983845442867,0.8992327076417694,0.0453529127934591,-0.5013697206629002,0.0002985158217836514,0.020176863635710002,1.0255973034750807,1.1117004383734321,6.265200124357254,0.7894766313078765,1.3610572258117597,1.3233872182214395,2.021825860909317,1.6203141362338034,1.4791118397761673,2.2577238515646156,0.6257719620336959,25,male,6,15,Psycho,fear,3,3,3,1
108,-0.24867337735438086,-0.24588577984048166,-0.19069455038383593,-0.1456929116613916,-0.14478108255810837,-0.1323603873073886,-0.33487873265518614,-0.3351411388165204,-0.3326664704733888,-0.4755555003719519,-0.47675658939053683,-0.4269270303968905,-0.3671746228720903,-0.3826744756655773,-0.34207669580364397,-0.30961486941649874,-0.2976177597553375,-0.19990732168664568,-0.24339590799861646,-0.2445060560087957,-0.2519774075523793,-0.22049079444457811,-0.21617185449005355,-0.22416806513477586,-0.2762944151457355,-0.27898390579442145,-0.27803771855482146,-0.2223877388386018,-0.22066407629340618,-0.1917922761700016,-0.26634069225565177,-0.2677879147819513,-0.2819777720790572,-0.35577338718083895,-0.35518190916213427,-0.34531232812433377,-0.2521808328642839,-0.25186807294270225,-0.24756929523517485,-0.21200772223324954,-0.21213382829670582,-0.2166637794021765,60.24697136688998,255.11111111111111,16.328721861549184,,,,,,,15.35743031245213,15.391439715256826,0.0640063139172224,0.06019898641640643,255.0,18.5325,0.07267647058823529,24.75,241.0,270.0,0.5050505050505051,15.151515151515152,206.5,310.0,5.6571428571428575,78.125,,,0.011729476310698907,0.03326941607887213,0.006022562598522311,0.3525635406508574,0.2298941745876948,0.652065732337206,-3.403123538561723,10.883391394882045,19.983426575501436,0.5446217423842151,683.2560464518388,1.836158753768573,3.541552184198384,146.7712065763971,0.6691919191919192,0.6684773430903462,0.9722222222222222,0.14674397859054417,51.59576177886353,51.49803740854787,51.70509418702743,44.29777652687869,0.5047240363814075,0.4952759636185923,7.734560829316424,7.661824943415396,0.6079361086488192,0.39206389135118075,15.579895560387468,12.509945941239412,0.5843326127337689,0.4156673872662311,12.299790619429707,10.3733882996952,0.8536759167296704,2.3205586809437575,0.8536759167296704,1.7623612061571499,-2.592200166879943,-2.830617836067958,-0.10843004542258439,0.00547133591627416,0.430014803669846,0.7514822378150022,1.3888001313800475,1.0141997517691235,0.8192060369188174,0.30529664607661333,0.9220863206342602,-0.6405182788877575,0.0002310213581811768,0.1006263527875495,0.9959069980414508,1.8208946052791872,5.738389216129384,1.3198816459744327,1.5890900801068626,1.2966719088494418,1.7317387304842347,1.7769425165972883,1.9098838164288812,2.8736165674365637,0.8862383952617728,23,female,7,1,Searching for Bobby Fischer,calmness,3,3,2,0
111,-0.15342767029484472,-0.15268568761673743,-0.1273555085295403,-0.12311606245313679,-0.12093014910480855,-0.1115952001344075,-0.21832819223760017,-0.21858161358727957,-0.21617610803792683,-0.455869247931983,-0.45656122405550736,-0.40235684577298886,-0.37848299962553655,-0.3865917616274371,-0.27018074591040964,-0.2712798375948718,-0.26421314127872825,-0.18136256023530428,-0.21823685967328652,-0.2164808734909856,-0.20553881373422273,-0.20614765930826015,-0.20126101624804277,-0.19753079466114248,-0.23132201966667437,-0.23188794031107635,-0.24212829208547743,-0.21719883532275283,-0.21472821333078942,-0.18352718292396503,-0.284726921260771,-0.28206112910793063,-0.27433351939928946,-0.25361260229677607,-0.25311409132656065,-0.24704532013196107,-0.23015026684034479,-0.22974882363387927,-0.2252713173279885,-0.14782209951900013,-0.1479915951186032,-0.1535992351553006,58.50356630175973,262.53416149068323,15.212250495985334,,,,,,,13.862339145593449,13.905351674824054,0.05794389125203362,0.05280204536679131,263.0,15.5673,0.0591912547528517,21.0,248.0,275.0,0.6211180124223602,11.801242236024844,232.0,314.0,4.9550189393939394,62.5,,,0.015859963023129586,0.16023397581427887,0.03360599046319823,0.09898127501917683,0.07563258531658901,0.7641105521004257,-1.8311230667077802,9.832568464051805,19.12475030191696,0.5141285146983627,590.7614687213597,1.9450867246793997,3.478377868529586,148.79735820422582,0.5714285714285714,0.58125,0.8924731182795699,0.0425531914893617,49.466720052461,49.449587889815746,49.48291110388792,50.0,0.4642796368070843,0.5357203631929157,6.7000328690542235,7.196898641076407,0.5002541751628924,0.49974582483710744,13.526645268281236,13.51975587839282,0.4927411011414681,0.5072588988585318,10.67390295489654,10.830031141817475,1.2212152942526395,0.9736888690475347,1.2884028098863634,1.6035852565832798,-0.40607856551105126,-1.1228828525143717,-0.18622177715642252,0.0006149221587043325,0.0720762630091901,1.112616966640183,1.261868045338665,1.7585093855174727,1.6884048880703775,-1.8185382437680628,-2.818538243768063,-0.5555553737504455,0.0016841791056209597,0.16686398524760243,1.0006139851388256,1.9870464995111945,5.631305282755181,1.3643884925716894,1.4767946109603936,1.4077260386711137,2.011468352773342,1.8352349292808263,1.7819328573658297,3.176801450575952,1.0017401945249789,23,female,7,4,The Ring,fear,2,4,4,1
115,-0.175836058352053,-0.1776975122070303,-0.14433855248441532,-0.13871859728208408,-0.13795828057328255,-0.12702803787322137,-0.2878962545372183,-0.2880743245703816,-0.1874665778815185,-0.4943714133886217,-0.49408563016609813,-0.42629552097788276,-0.39661357721130663,-0.4093239663809706,-0.3300819159989101,-0.23598040698007725,-0.2247912079179687,-0.09939655158397805,-0.2099129358808533,-0.21043659014948443,-0.16510690879270526,-0.2052837237605416,-0.2005864437015307,-0.20049721003601853,-0.23620496810926905,-0.2359056061560564,-0.14167367790418378,-0.2216697017170372,-0.21906042642485696,-0.1846381299126503,-0.2989273590610045,-0.2942887212515839,-0.26089220580487305,0.027732467206054125,0.05821434254215669,0.4553603006634701,-0.2245382771838175,-0.22410841172542498,-0.21952916900973365,-0.18033942731659436,-0.1804899575483629,-0.18555473981651788,63.43394171170624,242.20722891566265,17.67508520140646,,,,,,,11.715930312794537,11.730101683493597,0.07297505231588683,0.04837151378695663,242.0,17.7912,0.07351735537190082,23.25,227.0,256.0,0.0,8.072289156626507,184.0,300.0,5.684931506849315,89.84375,,,0.02130276893404478,0.01517461897681005,0.0023650887833939205,1.4038441594148754,0.5484400778969067,0.3906705855376479,-4.188131928369993,8.294434444406061,23.61138217239256,0.35128966600117,615.2591151816714,2.8466591309582987,3.496027758013516,268.85423027732065,0.5939759036144578,0.5842736907730673,0.89316044196877,0.07179487179487179,50.05144081924267,50.05379687670394,50.0492175228449,47.56514962593516,0.478330961413828,0.521669038586172,5.736547519462448,5.990799282804413,0.5347931126374401,0.4652068873625599,17.266130949962264,16.103456071400657,0.5285878774441413,0.47141212255585885,12.865254361438668,12.149407922186448,1.2863299528157919,2.113118019647559,1.5447254906243009,2.3428889626395715,-2.9101348983740962,-3.9324274032891404,-0.12305755765155608,0.004046970009986363,0.4023012153797809,0.9418777745697793,0.28185582879236337,0.9443561848559054,1.0127796767274362,0.44076423651137775,-0.339816650431112,-0.2572675816900075,1.836918720530459e-05,0.003042556767499014,1.245702582145165,1.7232630761539065,5.988048219565162,1.1090115823733968,1.4872892952671113,1.3310743815309116,2.112388193262298,1.7298636961808458,1.7523920355883378,3.309718144028648,0.7334791889595182,23,female,7,8,Crash,anger,1,4,5,1
118,-0.17375792665341616,-0.17270004807860445,-0.1413134573635926,-0.1470937975024573,-0.1461481727510132,-0.133416539731404,-0.20226939620706666,-0.20207259024681473,-0.19765689383236137,-0.44270892597443745,-0.44371839442951916,-0.33782283436254207,-0.38899581922370025,-0.40372612007736935,-0.3455498927338965,-0.04333713667894242,-0.04487786108039048,-0.048473864416508236,-0.16194655434320904,-0.16318376279286245,-0.17199112437166894,-0.20250884307058517,-0.20034608397155965,-0.21429736434186153,-0.2324841970393421,-0.23761278308523684,-0.2553087996923033,-0.1963343346385625,-0.19642464783628036,-0.185527819351556,-0.23515231658491326,-0.2334962244271253,-0.23063739716318576,-0.2542326384984181,-0.2537495997451773,-0.24767329728976162,-0.24199037759133776,-0.24163561123613045,-0.23724106774713552,-0.21655188440621714,-0.2167132294010652,-0.22132332547411412,58.39946751659403,263.07608695652175,17.249449451798203,,,,,,,15.603873668993518,15.688606368255524,0.0655682911029804,0.059313158598000404,264.0,14.825999999999999,0.0561590909090909,19.875,249.1,274.5,0.0,20.652173913043477,196.5,302.0,4.721052631578948,93.75,,,,0.03987481827612305,0.004935771014967063,,,0.8898646551384896,-3.2220111818496227,11.093519950359934,21.741367168422684,0.5102496871106441,757.7149798320587,1.9598481206208502,3.586473838593964,170.43920013583136,0.6032608695652174,0.6123737373737373,0.944949494949495,0.04640151515151515,49.1040949109009,49.16427704520265,49.04448508791784,47.18434343434343,0.4754505911966795,0.5245494088033206,7.650131856482584,8.035457103218395,0.5485952558285554,0.45140474417144466,16.10172972858988,14.605375502896571,0.5334657591492431,0.46653424085075684,12.605463832659073,11.787828864084354,0.7491973740051268,1.2846316598214267,0.866168158869294,1.2110078442166397,-0.9792002867295455,-1.5054584908277473,-0.23543169352759158,0.0003366926155778017,0.09124771273949761,1.375644048389423,1.037133190159281,1.375644048389423,1.5632394857221978,-1.8154439090822176,-1.6575345707235059,-0.31912117063386597,0.0012966439910036952,0.06868546633721727,0.6806797647804852,2.431840440569796,5.242600310057401,1.373085898344138,1.3442325031308426,1.242381747678024,1.4863294385489187,1.8070396332294574,1.9179761625643899,2.32687106148256,1.0636242319658173,23,female,7,11,Pride and Prejudice,calmness,3,2,2,0
121,-0.2730405851533763,-0.26967812051438345,-0.2067070351280715,-0.15219474307342815,-0.15114073984816428,-0.13732534092499965,-0.32213491443240444,-0.3223760526970525,-0.31982097202369647,-0.4758473266084748,-0.477061451812386,-0.4272457959536051,-0.4086811875704378,-0.4233124521431528,-0.3543564551571347,-0.27727214750368034,-0.26692894803887274,-0.18157382906585107,-0.24267170411842787,-0.24377937909689962,-0.2512465607235352,-0.22017118980654662,-0.21467814053374645,-0.21395056851604416,-0.25907503295336465,-0.26229015364186953,-0.2565639845439697,-0.22794351045806102,-0.22588012877226935,-0.1943785195884513,-0.3002314817125314,-0.29726423650127437,-0.28808015042536916,-0.2963661862170166,-0.2958133051201988,-0.2880528025221254,-0.2608210129836053,-0.26054223346880545,-0.2563113157909153,-0.2531515230328307,-0.25321194546331605,-0.25688895778098647,56.504535073067245,272.0377358490566,17.387742864253582,,,,,,,18.926378356516047,18.986349693545954,0.06391665777538075,0.06957262123008395,273.0,17.7912,0.06516923076923077,24.25,255.5,286.0,0.628930817610063,32.075471698113205,227.5,316.0,5.403801843317972,70.3125,,,0.028553007270948647,0.048576765636737365,0.013195476871282441,0.5877819184058625,0.31610846086140276,0.5377999217083143,-3.0246212868987854,13.425376618285469,20.668669514760182,0.6495515692176341,871.7452022846006,1.5395246178935575,3.647358149900787,127.27960827835818,0.6257861635220126,0.6302522746071133,0.9540247839216911,0.05,50.287239617009355,50.2665631289392,50.307434364033035,51.44747725392887,0.5364386944006121,0.4635613055993879,9.833081255522897,9.140826584418036,0.47642949879271457,0.5235705012072855,14.264766608254696,14.953747795311497,0.4942304472155089,0.505769552784491,12.251342001075571,12.393275600896896,0.8155287870197256,1.9059535674517882,0.9563304062800276,1.6633996597097878,-2.4391241217018518,-3.1674204302462563,-0.1294950100030497,0.0011254246745994096,0.23057643665640964,0.8744805960125672,0.8269320997740804,0.05099155153377177,0.464457601420812,1.0,-2.135865118950316,0.0,0.0005170567697568844,0.0750976428418614,0.8063961125646957,2.344142546349299,5.716672660505382,1.4674941831199821,1.8259014966724818,1.6104915944390232,2.043436475367163,1.962372821498015,1.9248527206242536,4.728159796389338,1.057838414915347,23,female,7,14,Gentlemans Agreement,anger,2,3,2,1
122,-0.20188800998755763,-0.20018662548616933,-0.15989607716325155,-0.14819835464604353,-0.14722152555543067,-0.13422950669754857,-0.20812363164379438,-0.20815409250927536,-0.20469657428657265,-0.15670243142132104,-0.12942239341865294,0.39362704979035934,-0.20934975714452245,-0.20960109023697676,-0.21824299857445542,-0.24919248245142195,-0.24477334643861937,-0.177526921077803,-0.08308298488418486,-0.08449166637261696,-0.09480131941927251,-0.21127734999282938,-0.20690998849600623,-0.20648355479983468,-0.19189800995210107,-0.19922028216815207,-0.22342809669363659,-0.12682086791766656,-0.1313667578644123,-0.1554064694035176,-0.2006988630422996,-0.19973077796600128,-0.2002472436222402,-0.17533359097363366,-0.17485892202933917,-0.1713733147740959,-0.2431347444845112,-0.24279071636355126,-0.2384405520305051,-0.1827974559615425,-0.18302909066993236,-0.1884330434048393,58.46535747264321,262.8590604026846,16.72525299481147,,,,,,,16.50397983172442,16.531710472114753,0.063628215703082,0.06278642176701574,262.75,16.679249999999996,0.06348094296577947,22.125,248.2,278.0,0.0,22.651006711409394,214.5,303.0,5.228070175438597,74.21875,,,0.027195822519900922,0.04267675100849398,0.0022471969291363372,0.6372613626578414,0.3770943138823711,0.5917465428966691,-3.1541068932064276,11.689684579445002,20.57236190055388,0.5682225812512853,755.5043612829045,1.759888589603912,3.5852049445016565,144.82021035134585,0.6325503355704698,0.6324804806208799,0.9702702702702704,0.07081632653061223,50.232617440240475,50.24559930158597,50.21927696578382,43.760811632147366,0.4790987083640128,0.5209012916359872,8.091264699650694,8.436941925831247,0.5945253156173922,0.4054746843826077,15.862384836227633,13.099774296025755,0.566348565058149,0.4336514349418511,12.591342897408197,11.017910284907735,0.8372749133892123,1.1815085675383925,0.990258090485201,1.4280291971584087,-1.6314039498913253,-2.643702297201442,-0.14030819648716053,0.0008779204142946992,0.11444423759917838,0.989787480606202,0.3627055730717109,0.6300160547456048,0.8113688412814604,1.0058682944222275,-0.5116145222312194,0.0,8.744752651156296e-05,0.011133148137994323,1.1531017927266118,1.9925962646593822,5.8442966489070365,1.4397860330366838,1.4884174288958794,1.4363028639714024,1.916132619536548,1.8582349262549878,1.9180795964476691,3.821881335032168,0.9101763797827227,23,female,7,15,Psycho,fear,2,3,4,1
126,-0.1850053354087299,-0.18357828255413097,-0.1483301426851946,-0.12716785540639325,-0.12665812171620985,-0.11820277383199444,-0.16610318884678088,-0.16610162266448203,-0.16258320592150838,-0.2511591749332901,-0.2512393907450027,-0.22959854589828096,-0.29455308931134416,-0.30172494024772395,-0.23621476747622291,-0.014607314667761565,-0.01779408795609028,-0.03287674779739354,-0.025404743063754405,-0.02690437257292187,-0.03820080937100288,1.0088406937755936,0.9550568898986691,0.9096247204385891,-0.018625331320889834,0.00405381099501425,0.05807546048526595,-0.11139622907816632,-0.10956944334520823,-0.09155078679176516,-0.09531430843542305,-0.0964994472979115,-0.10746563047093967,-0.1965323762071474,-0.1961452975754997,-0.1924116954762946,-0.18070567580621846,-0.18010831018486279,-0.17523201445964473,-0.17357424439269525,-0.17338767821880594,-0.17778605160840777,72.87354145220914,210.88958333333335,22.333862369439444,,,,,,,14.595450344566313,14.625776514251069,0.10590310766810437,0.06920896738960128,212.0,26.686799999999998,0.1258811320754717,35.25,188.8,233.0,0.4166666666666667,14.375,164.0,262.0,6.401137980085348,93.75,,,0.01830451353745557,0.12902009417334492,0.016655435272440244,0.14187334250925937,0.11162646244727993,0.7868036027477556,-2.047787206847508,10.341985753345874,29.876838065568016,0.3461540043702951,970.7078202668857,2.8888877223664817,3.6940584520862627,345.2433687836056,0.325,0.2966998995285571,0.19260316066725197,0.008333333333333333,50.42316249213312,50.40789018102157,50.439582879454306,55.164618594945516,0.6069407880381691,0.393059211961831,8.057237386493274,6.483981099729661,0.4414594187642826,0.5585405812357174,19.85078528963885,22.328479574772185,0.45916694359937965,0.5408330564006203,15.148820110766092,16.44085137499424,1.4509199521061036,2.1644442461828124,1.744315621803163,2.2201732267506404,-1.265461198004627,-1.4581520361216351,-0.2803475916784801,0.0022080869212583692,0.33249506972440884,0.6634624278173917,0.3801716615888888,0.8141745344725757,0.8408548136206597,0.5708996421019492,-0.40371346791569784,-0.4298318563954473,0.00013877697798550238,0.013713900279090042,0.8323853952524103,1.1476156516053433,6.101557571423916,1.0335683726313563,1.4667721025125047,1.2790036598889887,1.9696503945094448,1.7868420176279216,1.6789225276392756,2.8899371668618885,0.7906890595608519,29,male,8,1,Searching for Bobby Fischer,calmness,2,2,3,0
129,0.03398366691752808,0.030598590115049507,-0.0030806149914570967,-0.10098321041740425,-0.10103765706114663,-0.09817441914194373,19.092195477612474,19.129496006839513,19.2789555085645,-0.12717381030902636,-0.12651614058737592,-0.11996590216398503,-0.27348047708451106,-0.278583798370984,-0.23575194718469966,3.2817302173360257,3.1094536457125685,1.8358858913275329,-0.08859455065580082,-0.08997273025929038,-0.10012697393784091,-0.176795043346497,-0.17398076310178573,-0.17335258832294104,-0.11218605740267003,-0.11040164161256194,-0.0913317414209083,-0.1328084318114452,-0.12382167797947224,-0.10362027567807842,2.1763914929155033,2.1295271009430383,1.896973300940981,0.056271313531960916,0.05649326084251741,0.051141762635409024,-0.1964245390463709,-0.19587819655059027,-0.19106640520135673,-0.10838992013521588,-0.10862703532610193,-0.11504143024217492,71.04699324755546,216.24615384615385,16.000849107067307,,,,,,,10.09878221487603,10.124018489332613,0.07399368184116215,0.04670040153435842,215.5,17.0499,0.07911031007751937,24.0,203.3,231.0,0.0,3.8461538461538467,182.0,253.0,5.575980392156863,62.5,,,0.01613148031543902,0.11527449487590671,0.003910839416014668,0.13990262835143158,0.11916247044753012,0.8520107017680261,-2.160469039354685,7.158762126665078,21.478488779817898,0.33323682086935413,483.16681865300546,3.002740921647184,3.390720611634568,257.9290936610854,0.358974358974359,0.35106382978723405,0.4315729047072331,0.00909090909090909,49.168086012348326,49.18305530647966,49.15528897739296,47.6063829787234,0.5040764179861924,0.4959235820138076,5.085042113859753,5.03843885429557,0.5717409351840101,0.42825906481598985,16.240475101845924,14.056009095815588,0.5650540156017166,0.43494598439828347,12.034383990675773,10.558369472382147,1.3433752226791347,1.868307315738397,1.6036945923036812,1.8827950844937957,-0.8674360399564955,-0.8529922977929276,-0.35840830743240315,0.0010429298827844,0.21430437848182315,0.7550930304078506,0.9877835991950656,0.9067593098097575,1.0426784360859331,-0.27005654429799186,-0.7944084772977174,-0.36258822985186084,7.117095390277133e-05,0.046677552028379865,0.9452029181597121,1.517679374265326,5.7318275210974665,1.0986081179168337,1.581609410645725,1.449591647302929,2.00041190453115,1.8858458522861412,1.6265855650139158,2.7964280233171337,0.8192509568653427,29,male,8,4,The Ring,fear,3,4,4,1
133,-0.20747188069281308,-0.2055525987586331,-0.16323413219019553,-0.11497312417474806,-0.11472091933968377,-0.10884472507076096,-0.17020235514708557,-0.17023369775504554,-0.16683843886262073,-0.22406757454990225,-0.22392076176805292,-0.20519155719094362,-0.23860606909416274,-0.24103841068338522,-0.20806013603874,-0.1855877520195434,-0.1799488545905636,-0.12956851089982455,0.11134703413608457,0.13470169692381662,0.179647784070568,-0.13231321593975906,-0.13110739901473129,-0.13393792519267161,-0.09399770634467977,-0.09189063724335184,-0.07134351973728073,-0.09260898424066163,-0.10003991665579416,-0.1288695563087135,-0.2695005531751098,-0.26714859567195776,-0.26093161568219103,-0.14484477239545007,-0.14452432197012496,-0.142949812949915,-0.2068084712571056,-0.20630829216369442,-0.20160086835835594,-0.1618532436961597,-0.16203127466790182,-0.16746127546949602,68.75134693917516,223.4911111111111,21.399986775546175,,,,,,,9.657610783272148,9.6667137317694,0.09575318977633492,0.04321250512048669,227.0,22.238999999999997,0.0979691629955947,32.0,204.0,242.20000000000005,0.1111111111111111,1.8888888888888888,170.0,272.0,6.001066856330015,93.75,,,0.005719630805627626,0.011192927566867732,0.00028915313917935776,0.5110071116898609,0.33250444868615125,0.6506858121376746,-4.492476907885425,6.83539883152326,29.392616661376422,0.23254637420436475,631.2020822162533,4.3065361027234434,3.5067868203453134,506.30276250602066,0.45999999999999996,0.4414913043945302,0.6299393772389088,0.07437810945273632,48.816555904687505,48.79817645800372,48.83089962332186,46.35149796440119,0.47315809052871755,0.5268419094712825,4.70431754172423,4.960203783009886,0.5275406444449187,0.47245935555508134,21.34842732914838,20.203079573389473,0.5247736382104522,0.4752263617895479,15.458509442663175,14.710393993201638,1.3720377781119741,1.2558514560156997,1.4970102409468415,1.7841842075913643,-0.658513962274883,-1.0480629045131904,-0.2733649377947943,0.0004239605394678244,0.08861473462447522,0.7959371904068897,0.9577290185664125,0.9515669822700717,1.0075688409082837,0.049120454953947235,-0.2794683928150685,-0.441526708869459,7.751562194681244e-05,0.044584815309957004,1.0932716245740992,1.2104741976733868,6.22747838182303,0.8560482728885562,1.3513681308533458,1.3498694220654093,2.076608872893525,1.6487250537063962,1.603775619703835,2.4252663321643553,0.5288268714730222,29,male,8,8,Crash,anger,2,3,3,1
136,-0.16946530361462714,-0.16851961946828822,-0.1385505295188248,-0.09747607260251513,-0.09760512862426661,-0.09548825390417762,-0.0622776543212967,-0.0621619526620635,-0.05832379360589215,-0.1432989667178038,-0.14279356151851877,-0.1346309617289495,-0.3660681527526662,-0.37747005653745763,-0.30832327717138225,-0.13615819813875443,-0.13272075266345476,-0.12553296638274988,0.6909906130659303,0.7546020639876702,1.3965697403603543,-0.13870516771497574,-0.13719235808987307,-0.13980340646356268,-0.15995079309410953,-0.15862595626655995,-0.15525773942367938,-0.22641165815069597,-0.22417072301538957,-0.1917805961998991,-0.16757623609251712,-0.17897124389993138,-0.2321854185013044,-0.10859566441512604,-0.1082840351190004,-0.10779398029449481,-0.24222617278695444,-0.24187579287662372,-0.23750970213620234,-0.24934950949424756,-0.2494138993001853,-0.2531599662012175,55.10029767826381,278.8390804597701,19.117959085867373,,,,,,,14.61877460502306,14.704343946305109,0.06856269592606709,0.052427280210932285,278.0,19.273799999999998,0.06933021582733812,26.75,263.1,297.9,0.0,14.942528735632186,234.0,322.0,5.8,85.9375,,,,0.03078943248761449,0.005344358365691198,,,0.852090731958026,-3.4805971067802446,10.3975413173317,25.105918700604846,0.41414670765313905,820.082696170857,2.4146041397931954,3.6208256758866377,242.48324029118916,0.3218390804597701,0.32941176470588235,0.25,0.0,49.7175582062397,49.717119180417995,49.71856599342406,49.411764705882355,0.45950152372521436,0.5404984762747855,7.048150130534099,7.644228184648852,0.4710232820068636,0.5289767179931364,17.230454727027926,18.259743475104386,0.4693361090581848,0.5306638909418153,13.163682648179726,13.997369834098116,0.9949314905759725,1.1362968320791755,1.076044541464623,1.5496072383933288,-1.0550961484364958,-2.028150811992033,-0.08473686482210074,0.00049191877889842,0.0919852707883016,1.2802710806781121,0.27964066591299463,1.1813983191957167,1.321218652152214,1.334886141456745,-0.4157367711451041,0.0,0.001213859540452591,0.02467239757145455,0.486061539445269,1.4796823146915576,5.603638323335463,1.204413793283857,0.0,1.059855613205358,1.5387035557711513,1.8649963797840678,1.876627401464316,3.359920718184388,0.8886818614963763,29,male,8,11,Pride and Prejudice,calmness,4,2,3,0
139,0.07379006277730447,0.06963583329653146,0.023678069556688188,-0.08903091178908455,-0.0893409263682485,-0.08901367650072821,0.007956489258198801,0.008225389173337459,0.012634500172560688,-0.15010946915499437,-0.14959720109917127,-0.1402224837840434,-0.32375089829815373,-0.3328711740412132,-0.2690438575983407,-0.17227022385913113,-0.16731519672616174,-0.1220377978672686,-0.15091638539138683,-0.15218926637722632,-0.1613030748949817,0.05299110649820715,0.045225213810531704,0.03529070792201784,-0.12638378284436166,-0.12491085368946483,-0.10730162479805697,-0.15264318569562293,-0.15056048856981963,-0.1273955615852081,-0.1801075179375251,-0.1795673001725175,-0.1821585319579911,-0.1715805983827132,-0.1711971314368548,-0.16830444318058213,-0.18827081341056687,-0.18768695410004393,-0.18278985889573807,-0.13616996470326967,-0.13635991710059106,-0.14219228107799345,54.76865576752423,280.6168831168831,19.445304212601947,,,,,,,15.303946011427145,15.35063380381462,0.06929484782461415,0.054536797078787,280.75,18.903149999999997,0.06732977715188307,24.875,267.8,296.5,0.0,18.181818181818183,211.0,325.5,5.703703703703703,101.5625,,,0.010610826041249723,0.017525477782074722,0.006490502492471767,0.6054550432907277,0.30643519934441465,0.5061242051665076,-4.044102664002021,10.854537258188763,25.179775264888402,0.4310810329847936,858.6452135718048,2.3197590583517966,3.64078153156737,233.64375156471345,0.4383116883116883,0.4348098434004474,0.6382575757575757,0.018867924528301886,51.30792822816295,51.35993068691445,51.25448457055069,42.47651006711409,0.456623794044445,0.5433762059555551,7.336484348164781,8.0032070653567,0.54872478894928,0.45127521105072,18.651887284015373,16.914484650727296,0.5342813398069695,0.4657186601930304,14.17248604544245,13.231737781470379,0.8806302579245592,0.7420325278685643,1.1147307370202744,1.2516465218588415,-0.47334793281425824,-1.4926939499644793,-0.3170571222741306,0.0004409673423671152,0.04931952366955264,0.7832242002110212,2.3828173396288266,0.8203491059255619,1.958112296929777,-4.450993759996058,-5.417952613804744,-0.02251594312532664,0.0011262536322702204,0.32647613698197986,0.6822451968947769,1.5995621509586386,5.738707036846504,1.2956930147983639,1.5024054417874575,1.3507003865650984,1.8532413434897859,1.7751573412213142,1.8790354418913902,2.751917222714757,0.8965515861896307,29,male,8,14,Gentlemans Agreement,anger,3,1,2,1
140,-0.050275392156674203,-0.05174824201982507,-0.058749430480513655,-0.019802284706075902,-0.03045302681845692,-0.09625359329366735,-0.06044207009797053,-0.06024067471671796,-0.055953388274860724,0.19359468669849014,0.19599012418083037,0.16281437698794501,-0.23681338463576243,-0.22833544405716513,-0.13814686718719446,0.35310244479902947,0.28158035206657483,-0.07168590993949035,-0.20673374437987305,-0.2079012482469007,-0.21599102149524466,1.0072641946878849,0.9535202618988151,0.9077916972178698,-0.2850818419658353,-0.28588201530975316,-0.26356802950476177,-0.06729506985343885,-0.0657580719829783,-0.053421351506516716,-0.07582224170795832,-0.058266034303196226,-0.04637570567094562,-0.13083611282971885,-0.13044801186704127,-0.12886008369272037,-0.12595363415129945,-0.12512433229355505,-0.11972209342562633,-0.1466893463568075,-0.1468652600565638,-0.15250340002238275,55.15984678403356,278.59929078014187,18.963642431727564,,,,,,,14.238632889442465,14.260889442879918,0.06806780583907812,0.051107929419242346,280.0,16.3086,0.05824499999999999,21.875,265.5,292.9,0.5319148936170213,12.411347517730496,191.0,323.0,5.371915820029027,117.1875,,,0.03415943795701869,0.07848623925525092,0.011378275138491307,0.43571640254042193,0.2754789066730816,0.6327212531476527,-2.5452276980366886,10.083971630812036,24.3417730121339,0.4141918279512649,771.3251730929746,2.415640458418089,3.5938830618613244,235.1617045626333,0.4326241134751773,0.43115942028985504,0.634453781512605,0.00956959706959707,51.275468717329176,51.525840630210006,51.07169301327046,46.92028985507247,0.4959426821249793,0.5040573178750208,7.104332002581789,7.159284892889987,0.5757982591498362,0.4242017408501638,18.471002019318817,15.848511075492354,0.5640398796425681,0.4359601203574319,13.993924671237833,12.298102830061609,0.9787025373354693,1.914422415356017,1.0975290544628273,1.6613069786560906,-2.007521635707115,-2.2000688166319593,-0.20840985632295692,0.0012688743038401199,0.21158254952004618,0.8390578767059471,0.3071407504348529,1.0524487258308641,0.8988783506134377,1.5840827973463263,0.5754439181689011,-1.0,8.415808940840568e-05,0.009212364225822903,1.0464558570682931,1.6040270852256482,5.8914048605223694,1.2069636647489363,1.415272638115116,1.2563600806519626,1.7413403572727342,1.6882561229421125,1.8391359208421243,2.3286211993709047,0.894773375618307,29,male,8,15,Psycho,fear,3,3,3,1
144,-0.1921684080159334,-0.19066301741411332,-0.15272087295848769,-0.13809502437961804,-0.13735136704512213,-0.12657069821687358,-0.3395330918587101,-0.3397958434973869,-0.3373131494144764,-0.43230510302333774,-0.43081893087957235,-0.2528719982752794,-0.33020751966729106,-0.34620748760599007,-0.2901252428811247,-0.1602003772234266,-0.14582553592720554,-0.04311999790406741,-0.19964152274936042,-0.20082872138129398,-0.20908669116846185,-0.17095332526051765,-0.16877988968685811,-0.13159454580315716,-0.10780102581838488,-0.1059120123184449,-0.08618126140826342,-0.19434703373241788,-0.1923177204602343,-0.1656726879723758,-0.04006694322538143,-0.04235873735991795,-0.05870269921068759,-0.37295487623871487,-0.3723310074689144,-0.3617554342296158,-0.24491689363977512,-0.24457525625649848,-0.24022307551460656,-0.20096751796539256,-0.2010103938305612,-0.20530409650810022,72.01361827933977,213.32067510548524,8.793679627823067,,,,,,,5.340554284617691,5.351597826542463,0.041222819229662894,0.02503533369176163,213.0,5.9304,0.02784225352112676,8.5,207.6,219.4,0.0,0.0,183.0,242.5,2.2788461538461537,39.0625,,,0.01805968361519804,0.06269435719207445,0.006225108747760586,0.2880589581149996,0.20763259502259318,0.7207993951823133,-2.769484589109922,3.7841511133313652,11.813437858273932,0.3203250697694921,140.44165785285963,3.1220056571129993,2.8544511442998557,147.5260579716643,0.609704641350211,0.5857197976506903,0.8537370328708911,0.13055555555555554,50.67922612702801,50.712388059281544,50.646598856573064,44.90697076223956,0.4956554327371459,0.504344567262854,2.664300420996547,2.687554159326289,0.5626918960273901,0.4373081039726099,8.860757774969784,7.811042821582894,0.5564716792493745,0.44352832075062576,6.542719101592321,5.841058547164947,1.3861699640510217,1.0395849949932763,1.3924000482254715,1.828308650110997,-0.9777004268330254,-1.6797951643692128,-0.08070295990530169,0.0004879836820754209,0.069526756392884,1.0407259287049633,0.5918067758348651,0.49661747931845357,0.7915001474934581,1.0933552134118547,-0.2913880097950452,-0.0017130621138826262,0.0005153797964344859,0.03879709767945384,0.9833529027585386,1.7202165543055339,4.9085787646942585,1.038399709368118,1.479329974923373,1.2520399696928148,1.9517418703807863,1.5611363944331509,1.6602170416663347,2.264775168779325,0.748931321097936,31,female,9,1,Searching for Bobby Fischer,calmness,3,2,2,0
147,0.022268097932112384,0.042133087717270826,0.02601907243525945,-0.07292316335453657,-0.07356682801273524,-0.0766434986346035,-0.05853124318048586,-0.057686188400784606,-0.14104209705738724,0.1070644962691115,0.11033536392585687,-0.06026322284301766,-0.12198371064932667,-0.12032706747891415,-0.08253356505587625,0.07252997517899745,0.08850601946816955,0.03830681501301288,0.07526656525854616,0.09456357711662654,0.10424922666680238,-0.17387761505154847,-0.16983085796327074,-0.1617542812482341,-0.17867404101936474,-0.178212075964782,-0.165152513247834,-0.0805576166087775,-0.07889424371035739,-0.10450844857778366,-0.15153570185793508,-0.1400018221379142,-0.1410130959955218,-0.06290353103304425,-0.05138042871774589,-0.05255332878557934,-0.21970213976880537,-0.21924365080124175,-0.2146044204557347,-0.20956523119006212,-0.20966021924693165,-0.21406836309217628,69.60037720725714,220.70157068062827,5.825075033029243,,,,,,,4.626859272029884,4.6388119083495205,0.026393446204597087,0.020964324167521656,221.0,5.9304,0.026834389140271492,7.75,215.5,226.0,0.0,0.0,202.5,236.0,2.0000548245614036,31.25,,,0.01896034974948703,0.04808114968347097,0.005614718114507733,0.3943435505312831,0.260962912899892,0.6617641580430708,-3.034869453989197,3.2801353570428553,7.562798747806096,0.433719485187672,77.93357418051323,2.305641264961304,2.5986935444775456,69.74835718261652,0.6727748691099477,0.65625,0.9220647773279352,0.16574468085106384,50.661029753602975,50.6533830163023,50.66840682550226,48.86363636363636,0.5140832705022005,0.4859167294977994,2.3519661491102193,2.2866448952689593,0.4966634588230563,0.5033365411769437,5.329682139555708,5.365410508381116,0.49942333910592623,0.5005766608940736,4.119309633689237,4.124101277781184,1.1183822012699576,1.2698947154505589,1.294282906303287,1.7435326946237564,-1.7989380561150439,-2.798938056115044,-0.1462400463582474,0.0012320334358994055,0.13367243999150608,1.0068879494665013,0.461813888660464,0.8644381869108999,0.8719964060546832,1.0,0.8210520634014675,-0.48180652155057824,0.0005773145676557388,0.03135283696168048,0.9373614452198153,1.3757054403820277,4.461062594674737,1.2199619380672706,1.3597819628827972,1.4246805376503444,1.9010454841802682,1.681676541496259,1.7819712747452967,3.306516172466763,0.9918100560256216,31,female,9,4,The Ring,fear,2,4,4,1
