,ECG_Rate_Mean,HRV_MeanNN,HRV_SDNN,HRV_SDANN1,HRV_SDNNI1,HRV_SDANN2,HRV_SDNNI2,HRV_SDANN5,HRV_SDNNI5,HRV_RMSSD,HRV_SDSD,HRV_CVNN,HRV_CVSD,HRV_MedianNN,HRV_MadNN,HRV_MCVNN,HRV_IQRNN,HRV_Prc20NN,HRV_Prc80NN,HRV_pNN50,HRV_pNN20,HRV_MinNN,HRV_MaxNN,HRV_HTI,HRV_TINN,HRV_ULF,HRV_VLF,HRV_LF,HRV_HF,HRV_VHF,HRV_LFHF,HRV_LFn,HRV_HFn,HRV_LnHF,HRV_SD1,HRV_SD2,HRV_SD1SD2,HRV_S,HRV_CSI,HRV_CVI,HRV_CSI_Modified,HRV_PIP,HRV_IALS,HRV_PSS,HRV_PAS,HRV_GI,HRV_SI,HRV_AI,HRV_PI,HRV_C1d,HRV_C1a,HRV_SD1d,HRV_SD1a,HRV_C2d,HRV_C2a,HRV_SD2d,HRV_SD2a,HRV_Cd,HRV_Ca,HRV_SDNNd,HRV_SDNNa,HRV_DFA_alpha1,HRV_MFDFA_alpha1_Width,HRV_MFDFA_alpha1_Peak,HRV_MFDFA_alpha1_Mean,HRV_MFDFA_alpha1_Max,HRV_MFDFA_alpha1_Delta,HRV_MFDFA_alpha1_Asymmetry,HRV_MFDFA_alpha1_Fluctuation,HRV_MFDFA_alpha1_Increment,HRV_DFA_alpha2,HRV_MFDFA_alpha2_Width,HRV_MFDFA_alpha2_Peak,HRV_MFDFA_alpha2_Mean,HRV_MFDFA_alpha2_Max,HRV_MFDFA_alpha2_Delta,HRV_MFDFA_alpha2_Asymmetry,HRV_MFDFA_alpha2_Fluctuation,HRV_MFDFA_alpha2_Increment,HRV_ApEn,HRV_SampEn,HRV_ShanEn,HRV_FuzzyEn,HRV_MSEn,HRV_CMSEn,HRV_RCMSEn,HRV_CD,HRV_HFD,HRV_KFD,HRV_LZC
0,1.0193501327355166,0.9807147949722173,0.9428950372028653,,,,,,,0.9374628556625093,0.9331890400532303,0.961436446812233,0.9558971623971912,0.9817299301919721,1.0,1.0186170212765957,1.1538461538461537,0.9782608695652174,0.9949748743718593,,inf,0.967938256493948,1.0112612612612613,0.8917603671302009,1.0416666666666667,,,,0.4926460492104121,,,,0.5909711719901374,1.3116588220717897,0.9331890400532303,0.9439947058147901,0.988531176247786,0.880949962183039,1.0116950355158476,0.9821825804591301,0.9550134258745163,1.0247159580786693,0.9830001524710184,0.8914297593750549,1.3806818181818183,1.001613159397769,1.0019099976115857,1.0013227995820349,1.0384440761281457,1.023861707186272,0.9744629059410184,0.9441468776074587,0.9212487335553974,1.00693747703245,0.992210968421859,0.947205850484848,0.9402878477882182,1.008488818809571,0.9906217972086103,0.9469246284166233,0.9385473371127426,1.195256454627161,1.8097827293848943,1.2040711990159405,1.176303622199384,1.577097734682504,0.048745747094102676,1.3619430149541727,6.156158216123548,3.8287772773117617,1.0,1.0,1.0,1.0,1.0,1.0,1.0,1.0,1.0,1.438378068214479,0.8587306111783048,1.087459124593949,0.9242062765998913,1.6574310454895782,1.2327301156613975,1.4428799460473174,0.9849680874572108,0.9846038351532174,1.3520418335230593,0.7543696601469132
1,0.9019112077533142,1.1089908148891567,1.2121971279119048,,,,,,,1.646394213855828,1.6416991238264749,1.0930632712526689,1.4845877817485664,1.1133451898692488,1.1047619047619048,0.9922434953362789,1.2379032258064515,1.1137724550898203,1.1327956989247312,,inf,1.034065639138103,1.116550749836992,1.054473033151905,inf,,,,4.070582869868756,,,,0.8748949076737631,0.694394625668455,1.6416991238264749,1.1952392798673004,1.3735292805306845,1.9622268843945472,0.7281468439233507,1.0991821284482535,0.8703081318717784,0.8537804076265614,0.8802724227104062,0.7676406926406926,inf,1.0188882992952375,1.0179207929298384,1.0198113015939443,0.965191322372285,0.9715845581361531,1.027586683927121,1.6178297019783787,1.664169015158334,1.0248387259175527,0.9765544918806325,1.2099660245862687,1.181118270918646,1.0209962244652737,0.9801736381103012,1.2281561698222638,1.2033438625527935,0.8579790900826145,1.3905664657382424,0.8649245910562811,0.8881406544211878,0.2901380732698593,0.193827483873653,1.1337497942568238,0.07656796896368545,0.5715558976737696,1.0,1.0,1.0,1.0,1.0,1.0,1.0,1.0,1.0,1.1744252268628639,1.3511386322500436,1.1317089244275755,1.3034366392752914,1.4182138331670497,1.2417272072875556,1.8765635362734192,1.0699193197237609,1.0286487629341199,1.3026860957310287,1.4651310445954129
2,1.0327772184900805,0.9678878962036339,1.0940668466284746,,,,,,,0.9737268494231959,0.9681264879742274,1.1303652404881634,1.006032627790112,0.9803921568627451,1.1111111111111112,1.1333333333333333,1.0689950513894175,0.9650934197696788,0.9751609935602575,,inf,0.8783783783783784,0.9915164082221422,1.2182288671650374,1.3333333333333333,,,,0.33229686895145516,,,,0.35259407091145567,1.3525786295246462,0.9681264879742273,1.1043981010405304,0.8766024780466548,1.069207867769809,1.1408263649621877,1.0090719303883091,1.259915570595393,0.9672560511892587,0.9362657935547727,0.9040562726449275,1.1380597014925373,1.0002330178703736,1.0004940759903556,0.9999774062925358,1.13792363700946,1.069058678038695,0.9465166042068991,1.0009471491812982,0.9418989780431053,0.7780849924454538,1.42331579973538,0.9741222116055064,1.3175277663405551,0.8020292671315663,1.3397458950890069,0.9762092708782016,1.2617505045820572,1.0317463632501132,0.97303528525511,0.9184586281544638,1.1924221031692035,3.328455167412117,5.386665517806822,0.39991242684846506,1.703823065837587,1.097684027156643,1.0,1.0,1.0,1.0,1.0,1.0,1.0,1.0,1.0,2.2398874366674226,0.853926010577194,1.1202187790976974,0.9018403165309082,inf,1.6938950833372584,2.7827827457683725,0.9140288253540001,0.9679505848084283,1.1624710350472836,0.9798493998216977
3,0.9521824290545758,1.0497241709017382,1.1903375164865948,,,,,,,1.2354419454488217,1.2360880388651245,1.1339528053733352,1.1769208326825769,1.0561224489795917,1.1428571428571428,1.0821256038647344,1.2435897435897436,1.047872340425532,1.056992028091487,,inf,0.9141344383057091,1.0482456140350878,1.273316217512646,inf,,,,1.0455454819900143,,,,0.5905782653245362,0.9815842041320262,1.2360880388651247,1.2162119355205339,1.0163291527058669,1.5033797892513556,0.9839507527550458,1.05969964008626,1.196676778787181,1.0908579953509352,1.0903841942868517,1.1235859728506787,inf,0.9260421077428935,0.9320785706831578,0.9200716588011957,0.9058965207275804,0.8042302788388702,1.2379692118123327,1.1033260216373804,1.3690424846145577,0.8619147898451772,1.322481856635972,1.1285732530593973,1.3960731775182689,0.8568082968372985,1.3110557249157093,1.126642196698695,1.3922774172271868,0.9956090124349721,0.8397954049192253,0.9181742594983974,1.0090501548935396,0.6450640223771134,1.244514875688324,0.20172850639237902,0.8994089765074669,0.8757071597534342,1.0,1.0,1.0,1.0,1.0,1.0,1.0,1.0,1.0,1.3177758459672806,0.8045407568412859,1.1034175241527966,0.9472273669653064,1.4900025981451055,1.107013409219181,1.1685852665326895,0.9217416578435704,1.0343983258535565,1.1072565957532041,0.8016174601723894
4,1.0632386068147466,0.9423834846346153,0.6853939285019239,,,,,,,0.7477801042524663,0.7457935590929343,0.7272984825878678,0.7934992955585534,0.9333333333333333,0.7867647058823529,0.8429621848739496,0.7819990954319312,0.953125,0.9302325581395349,,0.8397790055248618,1.2411971830985915,0.9691629955947136,0.8566705224599962,0.0,,,,13.79776645938253,,,,0.6971820691317375,0.4878496514661368,0.7457935590929343,0.738284564136592,1.0101639585475986,0.5506118936010433,0.990038436448847,0.9201552933539436,0.7309250959143191,1.1340197555667169,1.0561735227008644,1.0372734201773837,inf,1.0820973262478168,1.1032035082285379,1.0655682073466863,1.0535571262872976,1.5200602002050476,0.748849295511941,0.918282930270665,0.6445666412961281,1.0352077657858398,0.9642927565323025,0.7511675796392715,0.724983851493519,1.0744764025414568,0.9306454669968047,0.7660855753302943,0.712974745916421,1.3132257186614127,1.4281042394999948,1.274392585367493,1.0393650633257239,0.9730250409058709,-3.905992573780688,1.574922431522285,0.457028515240796,1.3525030395264759,1.0,1.0,1.0,1.0,1.0,1.0,1.0,1.0,1.0,1.3711305354165477,1.3012395839079973,0.9911332427107336,1.05854398446697,1.6904736142560886,1.1750753678506967,1.3926249958849044,1.1460758053108082,0.9118458426643808,1.1454139905471652,0.7770372821041758
5,1.0483758524298434,0.9538691326719964,0.796674814995768,,,,,,,0.5214735736387233,0.5194923100234667,0.8352034871285726,0.5466929136912637,0.9451073985680191,0.5483870967741935,0.580237862495927,0.5,0.9957412784103796,0.9328888888888889,,0.08322087269455689,0.935064935064935,0.9753086419753086,1.0600141298139074,1.0,,,,0.3029800723484884,,,,0.6839611865870234,1.5521141112265975,0.5194923100234667,0.8239043341432701,0.6305256977657981,0.42801154889246995,1.5860013511669417,0.8987148762363154,1.3067147584452385,0.9023383162047129,0.8644147080961315,0.8372168284789645,0.3619402985074627,0.950434949924494,0.9513342432664956,0.9498020476987907,0.8590208411313268,0.7932025310805525,1.4084001749745525,0.4621731152216566,0.6158653627862221,1.2831006580114894,0.8604363295427067,0.9332231355151334,0.7642339701894996,1.17616097437508,0.8991903448709944,0.8657893376698151,0.7570285536224333,0.9959844828624329,0.6024635361995456,0.9501684148259171,1.021074634621811,2.007352035019236,-0.10873834128770107,0.9779740142816924,0.6588791444975475,0.4427897313564835,1.0,1.0,1.0,1.0,1.0,1.0,1.0,1.0,1.0,1.5238729495669103,1.216470437674658,1.0789574914702291,0.9573406284154157,1.5434843760519221,1.4418318333866318,1.8878586611108847,1.0861603506664526,1.0683986146077848,1.05016755291395,0.8245135189292745
6,0.9664084373776278,1.0346273609603036,1.044210990756059,,,,,,,0.6939590232407267,0.6907985010415068,1.0092628710236147,0.6707332651717011,1.046116504854369,0.6111111111111112,0.5842975404344914,0.5945945945945946,1.0605128205128205,1.023041474654378,,0.5458515283842794,0.9715259740259741,1.0216450216450217,0.6749552190197037,1.3333333333333333,,,,0.2621692718869473,,,,0.4543105958633372,1.604094178295831,0.6907985010415069,1.0876941812904224,0.6351030616790756,0.7513783217692819,1.57455300266751,0.9618472752723912,1.7126306606997819,1.3512926756649464,1.3110254532925623,1.2633119383825417,inf,0.993933807580275,0.9948153284030055,0.9930749630140119,1.0535930259954451,0.9168019143364016,1.110855833648249,0.6614083071345094,0.7280545082336145,0.9778104422898963,1.0238745706865289,1.075352851973634,1.1004142990370376,0.9627492489271456,1.0404836330899747,1.0189628189765414,1.059311474959848,1.1616070036748645,0.6146716597793367,0.9952826349711621,1.3507265626874423,0.16557745088121834,-0.3141301962246509,0.34868628588179307,1.1880412075850564,0.30969662980634693,1.0,1.0,1.0,1.0,1.0,1.0,1.0,1.0,1.0,1.7217944128556488,0.7776836191398375,1.033857907384518,0.7006191576764859,1.664252600544839,1.140663948919007,1.1802283631477273,0.8030288984280173,0.9395220013313461,0.8463247785089495,0.7625420092723489
7,1.0635950959320084,0.9402367612916858,0.871160983277388,,,,,,,0.7782305316281621,0.7737602745482408,0.9265336176541632,0.8276964834158622,0.9022932308945928,1.0526315789473684,1.1666197579510271,0.7068965517241379,0.9666666666666667,0.9322429906542056,,0.1415270018621974,0.9662576687116564,1.0203619909502262,1.7913432179268227,0.9285714285714286,,,,,0.17038004196748968,,,,,0.7737602745482406,0.8707931241908762,0.888574269192129,0.6737821072467154,1.1254374529352393,0.9486009189524585,0.9800283752120272,1.0748189530312435,1.0518558520586918,0.9687758659469186,0.6123076923076923,1.0045237252821133,1.0046136080308155,1.0044012143499659,0.913712392137618,0.8820795659391407,1.163524448651229,0.726705193341669,0.8345859876160313,1.1283983778571192,0.9069190987891906,0.9249733148754686,0.8292736091282593,1.1091174082121809,0.9180312421327019,0.9117085338368217,0.8294829679547762,0.8423379783128261,0.47855782172046973,0.4267729076181085,0.6860496655752066,-5.678346426634995,-3.7041686582377205,-0.0,1.195409367992486,0.5810043188705233,1.0,1.0,1.0,1.0,1.0,1.0,1.0,1.0,1.0,2.204834876812405,1.8173678036613958,1.1636771315369185,1.089710279589509,1.5501051792369647,1.505499438264584,2.538208492049959,1.2713004245399138,1.1971428638897954,1.2674456574143202,0.7831806711701
8,0.9722575435067669,1.0297657841980645,0.713734638034099,,,,,,,0.7492776531181979,0.7476562273672155,0.6931038416977112,0.7276194060991282,1.007799006908463,0.5,0.4961340206185567,0.5662393162393162,1.0775862068965516,0.9966183574879226,,0.10771276595744682,1.272715910511186,1.0222222222222221,0.49990503323836655,0.45454545454545453,,,,2.1281331472928624,,,,0.6333532375028263,0.8019637880371809,0.7476562273672156,0.7381817390505134,1.0128324647958995,0.5519077597309221,0.9873422776496771,0.9232494471468602,0.7288362876451415,1.0131686622448102,0.9752008093458581,0.9712659135736059,0.7262745098039216,1.063580742723703,1.088958171508307,1.0447160847348465,0.962233524032232,1.0923163636637345,0.9415858988413222,0.7802539529879167,0.7244511322833512,1.0237584259471126,0.9798638603449658,0.7468935610469074,0.7307101213877889,1.0274243428957657,0.9771950502374505,0.7487835733528406,0.7302558544330089,0.9594201106587685,0.6352008955828945,0.8150184497923182,0.9369237723064661,1.8231304241842423,2.991958791564832,0.37570416892282277,0.6599578545595206,0.4080645053121983,1.0,1.0,1.0,1.0,1.0,1.0,1.0,1.0,1.0,1.375690978753555,1.1271190772102515,1.0027768216188027,1.173047270683822,1.606082398165991,1.10364610058136,1.502751367487626,0.9815427082971712,1.1086302113549276,1.3044344355069493,0.9947197282259291
9,1.0172201251169484,0.9826612056373304,0.9470412233256552,,,,,,,0.9339672305066369,0.9329940381089079,0.9637515126196798,0.9504468326913225,0.9903381642512077,0.625,0.6310975609756098,0.5277777777777778,0.9950738916256158,0.9746954076850984,,0.8915662650602408,0.9521276595744681,0.9819004524886877,0.7108002119766825,1.3333333333333333,,,,3.9111215270873574,,,,0.8710358251494685,0.6259242064610692,0.932994038108908,0.95245681463375,0.9795376511327988,0.8886648004231489,1.0211544014762453,0.9824520710092091,0.9725776058516098,1.1319454689506325,1.16514926297535,1.1105278592375367,1.25,1.0378418511008984,1.0368321157856493,1.0388807222013732,0.986335998667333,0.8817117033862135,1.1072943362795895,0.8756013787948764,0.9821987969089191,1.3189978635683275,0.5360245315786807,1.091745810563379,0.685333428921306,1.224774837790937,0.711948499822892,1.0476586037111515,0.7959012827510015,1.2085790529506752,0.5662254070547653,0.9168742431794574,0.7946393993542112,12.566688812090772,-2.230796976823059,1.3898422656488305,6.067381750023555,0.8935322169153712,1.0,1.0,1.0,1.0,1.0,1.0,1.0,1.0,1.0,1.515952715982111,0.6492135063999173,0.8812103628506704,0.796524026281888,0.9403033661760447,0.9448669534797802,0.7307868462396409,0.7494643668569466,0.9349890215829542,0.9909380826904302,0.9153414577326544
10,0.9403101972527372,1.0638851095151,1.2190919979079577,,,,,,,1.8818283304109507,1.878104760030945,1.145886888541563,1.768826646392912,1.064102564102564,0.7222222222222223,0.6788446054750403,0.6928571428571428,1.0802139037433156,1.052377323699857,,8.172413793103448,1.0346820809248556,1.1550925925925926,1.0299420113269702,3.0,,,,1.8896364855038423,,,,0.9331176248290403,0.8441256110611808,1.8781047600309453,1.1106084870385748,1.6846489966034595,2.094729102852715,0.6123313533529171,1.1035073103636495,0.6774727001306721,1.077146375791696,1.141953884288379,1.0763594568262087,1.80125,1.0045031611272068,0.9995736829183854,1.0095731450907737,1.0067349253751088,1.041188045597489,0.9552459808692448,1.9283804007786842,1.8185393315911393,1.1414777610286544,0.85524097776207,1.185498501450169,1.0272118734425746,1.1296951611878936,0.8667552903365787,1.3019172732215143,1.1425086860242062,0.6648289390670885,1.3538769325471913,1.0259262187999996,0.6565673487621334,0.059200629750293964,-0.0797754873569661,2.8433551103651453,3.0582496187320687,1.9279436769540677,1.0,1.0,1.0,1.0,1.0,1.0,1.0,1.0,1.0,0.8765615433178532,0.7387552785509535,1.0705901519778505,0.8729827397160728,1.1229534372672614,0.8685347912795573,0.9400529868669194,0.8315710626394022,0.9741486190904769,1.2783932451906304,0.8890895910938695
11,0.8930265457898094,1.1200626625049601,1.4546310641570614,,,,,,,1.7156361174579016,1.7092209862677263,1.2987050750391562,1.5317322636404764,1.1231807783531922,0.8712121212121211,0.7756217838765008,0.8893280632411067,1.1158469945355192,1.1246153846153848,,inf,1.0114285714285713,1.2222222222222223,1.0032144016007787,inf,,,,0.34283132344155043,,,,0.6222254655819788,1.4988353163485832,1.7092209862677266,1.3849693228218447,1.232341009892802,2.37089492500872,0.8271520924975425,1.1314059242352879,1.1439247541575384,1.379204892966361,1.3724961805363813,1.4683736559139786,inf,0.9958774545241903,0.996482732332955,0.9954007744995637,1.2168304534757488,1.2854765411114926,0.7884036727186695,1.94183577295063,1.5128089728547527,1.003521795818783,0.9973533013439533,1.3860495763096172,1.3823313839381188,1.0397151396796038,0.9535253524087348,1.4690780214975687,1.409886658223079,0.635782953658078,1.289120850214634,0.8321260290391022,0.6690457336584322,-0.09959297964991132,-0.822061268727673,1.4562244480373767,2.865735843818209,1.9376376718910944,1.0,1.0,1.0,1.0,1.0,1.0,1.0,1.0,1.0,1.8008419360948529,0.6877962484628672,1.1093245844004853,0.774197878285845,inf,1.7448121540450283,1.9976889260236872,0.8114270183686976,1.0372323859076533,0.823917858225119,0.9818884163473216
12,0.9708088140320594,1.0304037015108656,1.3473130987377986,,,,,,,1.0834932022341304,1.0775826698491615,1.3075584809742566,1.0515230104913447,1.0414507772020725,1.7181818181818183,1.649796472184532,1.5454545454545454,1.014387247666841,1.0481891139540394,,1.1666666666666667,0.9361111111111111,1.0599078341013826,1.8108108108108105,inf,,,,1.3972273203863694,0.08441644971414963,,,1.5777921281748797,0.9103531548919033,1.0775826698491615,1.4081425163630858,0.7652496295179729,1.517396569628692,1.3067652843794817,1.0614731272066482,1.8401081170581262,0.9867424242424243,0.9835041891421255,0.9341833296011075,0.6349398474178404,1.0113952282631478,1.0111659140317641,1.0116237431138786,1.0959844568567694,1.1632017335793032,0.887201525985182,1.162159956248925,1.0149970582040388,0.9040465460710045,1.1353725773235226,1.3388283808647166,1.500216328929217,0.9448078219339067,1.0685682123508164,1.316479466062428,1.3999655153132964,0.9519947899318153,0.4743633280857502,0.8569841125756462,0.6288339741028406,-0.36333366825509833,-0.21277290233401613,2.0510911466609354,0.06069957144571356,0.15595458051796357,1.0,1.0,1.0,1.0,1.0,1.0,1.0,1.0,1.0,2.666455984270235,0.8127955736800916,1.1574725085371749,0.828860369676525,2.2243331646245688,1.733164439221285,2.6021613242610764,0.9176624609967977,0.9568549226144409,1.1631567293796152,0.6694459581193324
13,0.9110872152420291,1.0975707091255604,0.7741557777574035,,,,,,,1.0229937988476054,1.0188293535657138,0.705335675707105,0.9320527509909857,1.1105398457583548,0.7417582417582418,0.6679258241758242,0.6487012987012988,1.1217961522437636,1.0673076923076923,,inf,1.0444444444444445,1.0807174887892377,0.730357877416701,inf,,,,0.9690159496545296,,,,0.6219842568992655,1.0109282258807926,1.018829353565714,0.7376278794507731,1.381048554662926,0.7516227725282714,0.7249363211428881,0.9597524586948771,0.5346652976970449,1.3178649435748089,1.3251506322368298,1.3736215816703623,1.9872032069071848,0.9840523070769794,0.9838913724095636,0.9842223527330296,1.0186572989851679,1.1640265931841562,0.8488258142101368,1.0996278588946249,0.938196303829,1.1397860801478366,0.8654147645246638,0.787031381254673,0.685325877912458,1.1407440919664782,0.8648130843757751,0.8275331085112975,0.7197804652676365,0.6666222299750231,1.4449330938647318,0.9206414276759456,0.5323188704019624,-0.4862435904642243,-0.5950772521659137,7.092273519707852,2.048957804881778,2.020904335898047,1.0,1.0,1.0,1.0,1.0,1.0,1.0,1.0,1.0,1.4734417076938149,1.1973279469666904,1.014480828314844,0.8745162443738747,1.2637728402218724,1.1303089994611568,1.4589576280813068,0.8958881958814262,0.9594624810674863,0.9136899362915973,1.0091640801097568
14,0.982997478428409,1.017407376326507,1.3600936910271557,,,,,,,1.6687140606774653,1.6601014041294162,1.3368231081024458,1.6401631239421453,1.0145631067961165,1.0,0.9856459330143541,0.8006535947712419,1.0205105105105106,1.0191387559808613,,inf,0.9417989417989417,1.103286384976526,1.1414117647058823,2.5,,,,3.056471578270972,,,,0.4605741594206928,0.7369369973060387,1.6601014041294162,1.301282112785019,1.275788802349864,2.1601848069094167,0.784788356049449,1.1291888526329004,1.0212678009928804,0.9881357304826693,0.9737556892669744,0.9894088919384774,1.0090250175356559,0.9727144033790948,0.972925496780856,0.9725217937818378,1.2012009825482681,1.1578309933407487,0.8715722879844665,1.7853222200957521,1.5496586033668245,0.8800800895242153,1.1654484695602716,1.2207657960141851,1.4048117575616494,0.9111413640659944,1.1141645544507595,1.2935478277823727,1.4304357403196182,1.0326669852341097,1.2973060615647152,0.960485196554323,1.2411477845951242,0.14918258558359931,-0.1744662950934365,0.587855155954327,0.4372810238860131,1.0036932088717552,1.0,1.0,1.0,1.0,1.0,1.0,1.0,1.0,1.0,1.5488506653023788,1.3388538933145697,1.1889620080368692,1.0177945024521435,1.5761725103298903,1.493369837631773,2.2076579189155687,0.8459292762299208,1.0364244249680952,0.9365597808631172,1.1047409994461301
15,0.9707312770134375,1.0299546707790084,0.8191181019914884,,,,,,,0.9626268673172332,0.9592263105361629,0.7952952933083421,0.9346303236715733,1.0479397163120567,0.9258241758241759,0.8834836389763348,0.8,1.043956043956044,1.0240963855421688,,,0.9943181818181818,1.0045871559633028,1.202777777777778,inf,,,,0.5882073182919036,,,,0.48050926928405646,1.2335036762678655,0.959226310536163,0.8005707751620414,1.1981751747835558,0.7679362480945151,0.8346031210548974,0.9616384021765252,0.6681572779658579,1.1772486772486772,1.165695723053318,1.0988242817788272,inf,1.0454358155541512,1.0449764249704963,1.045773292314468,0.9846115661454455,1.0362391243179503,0.9717097829917034,0.9756237107377005,0.9447770153396242,0.8836562433115909,1.2103622040172493,0.7525626827090424,0.8807330925107038,0.8873230400424706,1.1871820574624241,0.769599082383903,0.8901676452310621,0.8385646787747363,0.8274442792500923,0.7205469772971507,0.9764641987195389,2.5630091867663065,3.475598127738659,0.0744549236639652,1.4789444796244764,0.890356329075464,1.0,1.0,1.0,1.0,1.0,1.0,1.0,1.0,1.0,1.670843215957412,1.9180081434104577,1.0243374535793066,1.143284016106573,1.6362940872163607,1.1205148267802563,1.305630675845668,1.0310347017538204,1.0122469540033672,1.4181998031159302,1.2017551191536708
16,1.0043264491272463,0.9959606813032333,1.3144627629557657,,,,,,,0.8305724142933626,0.8261759218842555,1.3197938041722876,0.8339408555533576,1.017688679245283,1.375,1.351150067314027,2.072916666666667,0.952853832694945,1.0049573920178068,,0.5972350230414747,0.8938547486033519,1.0341880341880343,1.4172453703703705,1.65,,,,0.15230726573484582,0.044143087512167334,,,0.5665201565378769,1.6243992791914512,0.8261759218842555,1.3982634957592652,0.590840125458794,1.155252291215016,1.692912371050367,1.0189506540036048,2.367063810566012,1.1012285904496761,1.0873868926412364,1.0860392039503217,1.5105300105300106,0.9741853246229194,0.9757460898680508,0.9726751071508819,0.9872067619509791,0.894859614764085,1.1582605553220566,0.781089517968181,0.8891405847473115,0.9867823956929487,1.0249194343544092,1.3875156863045377,1.4138003738581189,0.9569079712341488,1.054899639232162,1.282523387897616,1.3462033771379311,0.7016856895015122,1.2489484834452858,0.7788052643967802,0.7332550521432224,0.1646787975007914,3.5594893785068655,1.0043136530280932,0.6822395995195378,1.1877094009144304,1.0,1.0,1.0,1.0,1.0,1.0,1.0,1.0,1.0,2.1869665617729686,0.9168733929698939,1.144457045302003,0.8337632229176952,1.5908829859165738,1.1457541448116642,1.101359003862302,0.8718621394299082,1.0624775762588428,0.9987735877277061,0.4413525124622528
17,0.9123513329395903,1.0961601041327693,1.0501549046440075,,,,,,,1.3209520934999137,1.3152063625853447,0.9580305839308401,1.2050722230444515,1.105263157894737,0.6491228070175439,0.5873015873015873,0.5238095238095238,1.125484036571652,1.0677720724575668,,4.642857142857143,0.9627586206896552,1.1157407407407407,0.9272222222222222,inf,,,,3.521587677076763,,,,0.5057951227348275,0.7418252567230801,1.315206362585345,1.0164336189218288,1.293930532096886,1.3368325106078907,0.7730130541245865,1.0411979389990869,0.7857093652361591,1.0720598845598845,1.066638679303153,1.0965492610837437,1.0507500487044614,1.0301205765389612,1.0335618690096378,1.0270430385258718,1.0374028415016006,0.9224011798390858,1.1066819252383904,1.2635755936113071,1.383518518793748,1.091296590442227,0.9022834164389077,1.061732109981119,0.9653420761802768,1.0725004536615743,0.9209636891140417,1.0819506279753144,1.0024956781478054,1.0859049178068978,0.26580426677585334,0.903249810119757,0.6872327589548021,-1.2662503208107572,2.1954589307665606,1.8636433865722004,0.6628972941948447,0.150406271006779,1.0,1.0,1.0,1.0,1.0,1.0,1.0,1.0,1.0,1.2431586571322981,0.7649275948219961,1.074320699529682,0.9158117496484441,1.4112702966021158,1.1947503044810666,1.5039311980079617,0.8352047719040189,0.927985419794122,1.0236254385730663,0.8821172913519767
18,0.9835087494039815,1.0162524571547713,0.7534022626137853,,,,,,,0.8939473907382434,0.8900139852921358,0.7413535080138384,0.8796511154998983,1.0303108493716229,0.7840909090909092,0.7609382596013612,0.8444444444444444,1.0411764705882354,1.0085858585858585,,0.6553903345724907,1.034375,1.0143191702910672,1.0055723742249132,0.9285714285714286,,,,0.5244020922417335,,,,0.7396631228073496,1.2205033911012824,0.8900139852921358,0.7324540564687572,1.2151058936299237,0.651898766567554,0.8229898012131266,0.9469782318266526,0.6027990049111829,1.1468912128763429,1.143081022659511,1.0300083886219782,,1.0118347032264672,1.0116520509085416,1.0119493262525778,0.892106408263079,0.9107054136055553,1.0982573684354335,0.8494079538610231,0.9327744573068495,1.113130095728882,0.8827597080513354,0.7727033803727714,0.6880091801159566,1.0821715638800242,0.9141993311578489,0.7819422737847954,0.7186211038252892,0.7314008579616493,2.392461267775677,0.8900656312119215,1.1434824057213615,34.314912987541206,4.259599779999002,0.6957832025053163,9.690719223503956,8.67706957082131,1.0,1.0,1.0,1.0,1.0,1.0,1.0,1.0,1.0,1.898245193590595,1.3439232207085285,1.0305264475708418,1.104302594736368,2.1219308042246974,1.3131094576403939,1.8945634429065548,0.9507102257184334,1.025242086280021,1.2603571548645283,0.7463793330503762
19,0.976753578223409,1.0253931449652374,0.7189876598519906,,,,,,,0.8584314033289743,0.8571104629786573,0.7011824193087535,0.8371730577089926,1.0258152173913042,0.8138528138528138,0.7933675519882417,0.8313953488372093,1.0452961672473868,1.0140441949487176,,0.553081098339719,1.0714285714285714,0.9669421487603306,0.7217521154803385,0.75,,,,0.4677512973844947,,,,0.8126974462884475,1.3594807971219116,0.8571104629786573,0.7208452265714611,1.1890445119094009,0.617840510457103,0.8410354542000023,0.9405011467657298,0.6062610591632318,0.9572557471264367,0.9570865155878303,0.6803113553113552,inf,0.927421962993678,0.9345257854056701,0.9199298870563942,0.9017300470988935,0.7777688527030081,1.3440067805249027,0.7545628388496373,0.9918663255205485,0.9188444776237963,1.0920195551830878,0.6908466103033364,0.7532033227657199,0.8990381898043214,1.1191896764585318,0.6995342175609002,0.7805397253079254,0.8108092281007415,1.171704961762515,0.7689000232576587,1.1108277805700897,8.215712665747368,8.987048451012562,0.3725218861472641,2.830723838280803,1.7102476283126964,1.0,1.0,1.0,1.0,1.0,1.0,1.0,1.0,1.0,1.3607202137851964,0.8935516343440367,1.0152191659058074,1.1754679265430727,1.233378118943846,1.058683329555214,1.367075234363609,0.9751745171519617,1.11964160574455,1.265579163222373,0.8912413896829035
20,0.9458658751627886,1.057749705706362,1.4354968334619924,,,,,,,1.560646164211947,1.553484844283119,1.357111652714577,1.4754317268286292,1.0260416666666667,1.4722222222222223,1.4348561759729273,1.3947368421052633,1.0425012840267076,1.0902386934673367,inf,2.5559833024118737,0.9722222222222223,1.304909983633388,1.1939610293023948,1.8,,,,0.6857473875642313,,,,0.48793797509510806,1.1773437723177782,1.553484844283119,1.4178650524606076,1.0956835966253538,2.2027587411744025,0.9126816248352918,1.100394701931608,1.294098226632626,1.000940009434859,1.0223018989858819,0.991358024691358,inf,1.050516227159213,1.0509995374567036,1.0500807292897076,0.9327248114780426,1.108453704812475,0.8852581345627581,1.6346838546701992,1.4607984493271018,0.9426394335949715,1.081362251792613,1.375243418719478,1.473674877153774,0.9664395028672994,1.048852397186088,1.411524273402454,1.4711106173593556,0.9585568753036948,0.7878782586476207,0.8896069558904598,0.9114562869458274,2.7001895211880655,3.931118973996408,0.9126456374263006,0.8300383830920244,0.625171042936745,1.0,1.0,1.0,1.0,1.0,1.0,1.0,1.0,1.0,2.031529234387021,1.1643238670650229,1.180844627976752,0.955736431133855,inf,1.2013713301087847,1.2408840530770893,0.9648737053060366,1.08216691979232,1.0481823968494781,1.0073842938353104
21,0.9583869166368211,1.0436399591828738,0.9418151695982067,,,,,,,1.0738378215583206,1.0700732419241514,0.902433018100216,1.028935073298701,1.0623384253819037,1.1238095238095238,1.0576773566569486,1.1946693657219973,1.0459770114942528,1.0614921854358474,,0.8263565891472868,1.0251572327044025,0.9603174603174603,1.129368598880794,1.3333333333333333,,,,0.6492164822233749,,,,0.5917044323718884,1.1718414763491403,1.0700732419241512,0.9233878067559541,1.1588520349148719,0.9880962640033485,0.862938972424911,0.9985075375067867,0.7968247910314885,0.9505990133897111,0.9279940719275088,0.8181818181818181,0.3285406885758998,1.0336907089754925,1.0354438187836266,1.0317483541257026,0.9137546004616056,0.9630491978771194,1.034988474002061,1.049702738661543,1.0882569170464427,0.976079423159665,1.045110501828824,0.9110846256401424,0.9425786313356299,0.9715129236788407,1.0458991391740684,0.9257276844143045,0.9604658155408322,0.8133813913368577,1.363849587201516,0.7247679740780939,1.122532643320707,1.4829951616881256,1.7876250195516792,0.08422561412458655,13.016047713440585,3.479843371884523,1.0,1.0,1.0,1.0,1.0,1.0,1.0,1.0,1.0,1.6685023779237218,1.0716486798140932,1.1117152683699143,1.117230751675431,1.4329883767252203,2.001013152834788,2.2029619500000637,1.0999151276321602,1.0593916545724236,1.4181154804907337,1.0458476160802557
22,0.9752543995429284,1.025556651724876,0.8422786177568395,,,,,,,1.0139121815275562,1.01061626261625,0.8212892153156215,0.988645707501643,1.0402298850574712,0.7000000000000001,0.6729281767955801,0.6944045911047346,1.060377358490566,0.9934010152284264,,0.5839506172839506,0.9863945578231292,0.989158667419537,0.9297853309481217,0.9,,,,0.7890519034430481,,,,0.7380919703764265,1.1142283841202252,1.0106162626162498,0.8270887227337727,1.2218743369080602,0.8358866187529304,0.818496165009756,0.9775627615710532,0.6769570387687451,1.0780855552097384,1.1477502382674798,1.0382513661202186,inf,0.9922799364364734,0.9921502954799324,0.9924463285708752,0.8764091031407373,0.8955295183506654,1.1624925095026324,0.9563550611091967,1.0896654033264808,0.9426543639874122,1.0525798110139333,0.8029315812211482,0.8484454469864633,0.9445519672545776,1.0524881571396238,0.8159738164713195,0.8612978116090195,0.9044830729310821,0.6042347300570374,0.913956694206771,0.8916164086003884,2.9944619116137066,-0.35834875714353953,1.2193335347418324,0.9214359897521353,0.4831292567056825,1.0,1.0,1.0,1.0,1.0,1.0,1.0,1.0,1.0,1.637055478848429,1.2926399267672282,1.0477417717077495,1.2028365733531277,1.9314284994733582,1.4904840212815684,1.3497215743882451,1.0655725107692535,1.080874826970116,1.1933315237406381,1.2494112550002083
23,0.8496233138224665,1.1776066465843942,1.8417761567435376,,,,,,,2.9358193639832315,2.9260713568629306,1.563999457786302,2.4930390572254923,1.150687597301505,1.6601307189542482,1.442870975550714,1.7714285714285714,1.12987012987013,1.2057142857142857,inf,inf,1.1263684704410384,1.6036269430051813,1.3506308758040575,1.75,,,,3.3729517662198614,,,,0.791426068168908,0.6349378811565343,2.9260713568629306,1.788717748679064,1.6358331881287114,5.233967577927503,0.6114171809847042,1.2359112938277939,1.0936424851695032,1.0773961212208225,1.1129898387487838,1.1941794469266998,inf,0.9921046727506131,0.9915713691574877,0.9932727728508745,0.9013404795759963,1.1174211871800495,0.8336859049703145,3.0926583951140767,2.671668543964836,1.0645126029983585,0.9461920629117646,1.8454215659804027,1.7398225554362585,1.0939650841217827,0.919756599442205,1.9438839532392103,1.782319812728871,0.9833006132719748,1.0509987892586987,1.0417933587675305,1.0373292686418956,0.051133387865795285,2.9183911845899013,1.0073055340151866,4.796130802996907,1.5603305419303444,1.0,1.0,1.0,1.0,1.0,1.0,1.0,1.0,1.0,1.6194835738292215,1.3490498457634734,1.1813119179129676,1.2800358939851213,1.722673554402418,1.5265799437501015,1.720507651901593,1.0828119619807977,1.0742852458335,1.1276686216362277,0.9792409359867769
24,0.9668314839376695,1.0343836138078202,1.1092095042572663,,,,,,,1.152857351768719,1.1482349202286852,1.0723386765076406,1.1145358723292444,1.0339065554801898,1.0705882352941176,1.0351333976213437,1.0709325396825395,1.0297619047619047,1.0401069518716577,,0.8082706766917293,0.9903225806451612,1.0694444444444444,1.1842204548541417,1.2,,,,0.4941206622025427,,,,0.40897589335565926,1.2895741533276217,1.1482349202286852,1.100602244838866,1.0432733472319555,1.2637571549986424,0.9585680811494134,1.032313439363573,1.0549967313123023,0.991195092995647,0.992280876494024,0.9321573787593205,0.539417453891138,0.9903749986559008,0.9903118678866287,0.9904406571957236,0.9559760956175299,0.840533271941791,1.2064050718955435,1.0527239316631976,1.2611104747042723,1.021900198560824,0.987778161734961,1.1114690283276079,1.092758859971699,1.0039719649625956,1.0042303990740418,1.1059214434940083,1.106113487795253,0.8917684271912705,0.8175056725749266,0.9030094501638546,0.8944942363445884,0.8061144664903848,1.0779945263598454,0.9583124692635832,0.48220874771047684,0.6650279700475452,1.0,1.0,1.0,1.0,1.0,1.0,1.0,1.0,1.0,1.5764545750811751,1.0629721513113344,1.1406153966456651,1.0674339898187162,1.8861863260790344,1.3076972702206802,1.8260747772399792,1.0421588861422184,1.0595027569607034,1.2624784254368295,1.3874693564314102
25,0.9177199267733925,1.0901331257702074,1.0901416738103533,,,,,,,1.3648416713388645,1.35939050719769,1.0000078460967692,1.2519954565699702,1.0837988826815643,0.9090909090909091,0.8388003748828492,0.9772727272727273,1.1097560975609757,1.0903473820987424,inf,2.208170254403131,1.032383745286971,1.2141337441766624,1.220694338341397,1.8,,,,0.5035743791162011,,,,0.49621229205439366,1.3009791271307987,1.3593905071976897,1.065398736662857,1.2759487102237541,1.448289236983428,0.783775067927805,1.0472938315767482,0.8350352011213736,1.4785823005001086,1.5352263376703297,1.568794597349643,0.6900186349871884,1.0702660975899718,1.075903166475531,1.064928463406499,0.8380718696084726,0.9783185785474552,1.0277810527171976,1.3432118780505455,1.3767716226666766,1.0756747241587121,0.9403144789026054,1.1049734404778615,1.0331152009445312,1.073326226531202,0.9399138151443154,1.1307159206087476,1.0581123985522862,0.7539294653499033,2.508086827879432,0.8054036024058915,1.0376397287278312,-3.097569742698047,-1.3252606784754173,0.5978886082011773,5.751908293674937,5.486914512075086,1.0,1.0,1.0,1.0,1.0,1.0,1.0,1.0,1.0,2.3759093448596493,1.6165338665138995,1.1252479641407211,1.3542911858980886,1.162408128590374,1.3420047700979756,1.762214155468335,1.0701811846694278,1.1699901261867733,1.012898578603867,0.8658973544685877
26,0.9397906342990351,1.0641539506501774,1.2471328817179255,,,,,,,1.2992698417543913,1.2949084383623026,1.1719478003685007,1.2209416137209872,1.073446327683616,1.0454545454545454,0.9739234449760766,1.0217391304347827,1.0479041916167664,1.0427306643485101,inf,2.3920157068062826,0.9935897435897436,1.1899874319229158,1.1811463046757167,2.6666666666666665,,,,0.6395977654338398,,,,0.7369112656524273,1.1994988842463956,1.2949084383623028,1.2399261817028941,1.0443056558132897,1.605653291372901,0.9579926157543526,1.0612022863743091,1.1877974565689895,1.236910994764398,1.2273804055852935,1.2271811284969179,0.7383333333333333,1.0045235362485494,1.005085701912902,1.0039590635447202,0.9580923386867772,0.970096560409097,1.0390397479796307,1.275535249847944,1.319768196097928,0.8827425826284814,1.1239379029773562,1.164887472166672,1.3144608813491856,0.8919812378220495,1.1161183684950644,1.1753861875536153,1.3148614271502193,0.8580034300798369,0.8624860641124292,0.8115964997969751,0.8219817991210419,1.4437953627544315,0.8869227211040405,0.9868571272309802,0.4548800808554978,0.5800968263051998,1.0,1.0,1.0,1.0,1.0,1.0,1.0,1.0,1.0,1.600493300084286,1.3132646693130665,1.1173567013342818,0.9582802448322397,1.9502261561799448,1.181853086530836,1.1182701305687712,0.9661358773574147,1.1080408724356579,0.8302124472292793,1.0522541764379167
27,0.9608711532586358,1.040425963317019,1.01884500043432,,,,,,,0.7223281505141887,0.722225086781044,0.9792569640239039,0.6942613663801467,1.0180288461538463,1.3095238095238093,1.2863621205652518,1.3167735042735043,1.0177682904858356,1.0608770668817566,0.0,0.8535200179937021,1.323076923076923,1.0776701957590564,1.2853071253071253,0.6177884615384616,,,,0.3834691014370059,,,,0.37198868993827633,1.2425743855581914,0.7222250867810439,1.1287985015889908,0.6398111369126942,0.8152614687567816,1.5629802883565285,0.9768371518556286,1.7642721354060318,1.0442025922795155,0.9979346012679348,0.8402597402597403,inf,0.9568891862465372,0.9593703881702219,0.9547645674677656,1.153658820110433,0.7908153611285949,1.2740054672229881,0.6421585776636658,0.8150219299568824,0.7622460845020411,1.45403576855017,0.9855058718071357,1.3611491899687576,0.7825458666590339,1.3691373377558649,0.9049857403670113,1.197053559036457,1.2492006201946513,1.026262367667623,1.049831819543043,1.932162540534259,7.1916092848450734,-1.5809759168042241,0.457994990214567,2.7264148396875347,1.260983118156075,1.0,1.0,1.0,1.0,1.0,1.0,1.0,1.0,1.0,0.8403140876680968,1.0425745076625241,1.0416370613851358,1.0229109301276065,0.6689754297628071,0.8758708907829904,0.7943073623061643,0.9654686851165548,0.96761191309198,1.0389637416422524,1.01656874836093
28,0.9833999466985726,1.0171201846371112,1.0109709994113034,,,,,,,1.0232732801619002,1.02069383077176,0.9939542383445458,1.006049452475887,1.0341463414634147,1.375,1.329549436795995,1.3273809523809523,1.0081632653061223,1.0142095914742453,,1.280701754385965,0.9835164835164835,0.9828607087916872,1.5988258317025439,3.625,,,,1.0467830943018952,,,,0.7673010265087417,0.978721250043519,1.0206938307717597,0.9992967898737684,1.0214127627056162,1.019981989638394,0.9790361958383988,1.0024357412932805,0.9783483642537947,0.9439655172413792,0.9155844155844155,0.7233333333333334,0.3382352941176471,1.0112629213519413,1.0115270261100122,1.0109723523273728,1.0468181818181819,1.040621315994449,0.9702019782616158,1.0411953967161387,1.0053397634273766,1.0028642161883268,0.9968221764525949,1.0006777378703258,0.9976791464701741,1.0059150060095767,0.9931317416175695,1.0055847933590396,0.99919970107998,1.0051639619897559,0.43742876940994346,0.8319524939075527,0.7930360000726568,0.22676868280535506,0.818558524346467,0.30240261865877843,0.08965751317377876,0.15653858683876576,1.0,1.0,1.0,1.0,1.0,1.0,1.0,1.0,1.0,1.0566209947305532,1.117092399566583,1.073211834325647,0.9679815398398884,1.4894076465245731,1.377597959986327,1.3243349552511159,1.1361534892550527,1.0192930596414034,0.937625037829945,1.00140965542338
29,0.8736312411925633,1.1451985881678064,1.6289784593333319,,,,,,,1.7831355316478552,1.7761516639675072,1.4224419081313142,1.5570536167278846,1.1466836734693877,1.5789473684210524,1.3769702653069198,1.7555923777961888,1.1091397849462366,1.1538825757575757,inf,6.436274509803921,1.1428677014042867,1.3671171171171173,1.8075905575905575,1.4880952380952381,,,,1.0633921571093594,,,,0.5927548941658574,0.9712120390491656,1.7761516639675072,1.6086456337893633,1.1041285336680708,2.857198814820153,0.9056945836704609,1.1374082165791772,1.4569415398399066,1.0763015551048005,1.0414917656544511,1.2142161635832522,inf,1.0201031813521442,1.017983679149345,1.0223648798454756,1.1961155348831054,1.3873902447749238,0.757239556818489,2.09175785065164,1.5453803076501087,0.9934910411512168,1.0068215483686034,1.603382839161278,1.6141036862779092,1.04181634371509,0.9602065780944381,1.6686230639054176,1.6019409467004277,1.0513191843108558,4.7271797560860005,1.2160404805676928,1.3845710675108018,-1.3041038268178173,1.6956477006858277,0.9525334649121318,38.36526776880154,22.918733888856536,1.0,1.0,1.0,1.0,1.0,1.0,1.0,1.0,1.0,1.8016421397071012,0.8021303986386707,1.1717549438719077,1.0335526301384377,1.375708668283002,1.6758304951910545,2.151557434023203,0.9691451548140141,1.0192770511894778,1.2283122528013237,1.0165481391677085
30,0.939468924300646,1.064346709012233,0.8778198050460109,,,,,,,1.0449183492274898,1.0393818273514253,0.8247498682127514,0.9817462039468428,1.0512820512820513,1.0,0.9512195121951219,0.9146103896103897,1.073446327683616,1.0545643770443056,inf,1.181809838472834,1.0375547479265679,1.0829959514170042,0.91537146824761,1.1454545454545455,,,,0.38417437397481474,,,,0.3645798811345895,1.4379639207012307,1.0393818273514253,0.8538851198655022,1.2172406787885044,0.8875116475813629,0.8215343622397409,0.9857714013336791,0.7014972332195736,1.044239969684051,1.003851116286682,1.0059880093228248,0.40145985401459855,0.9946559338088088,0.9954481089441767,0.9941324103641183,0.9063835202394295,0.9476232592904779,1.0642879253862438,1.0117624212907228,1.0722323298714207,1.2814425300156795,0.8307324751481022,0.9664067287964075,0.7781760640040665,1.2442320812538816,0.8433069562902231,0.9719779129813094,0.8002468657853201,0.9051251712837384,1.1918605932781303,0.9074179717677375,1.096794420826523,2.7441748803339125,3.0751193317252525,0.6021268965790172,2.297690722350489,1.6459017586021871,1.0,1.0,1.0,1.0,1.0,1.0,1.0,1.0,1.0,2.0842415231751454,1.1221864570512885,1.1011301653192582,1.1259362674159736,1.3415503119337975,1.0792801480455845,1.583026966044481,0.9661093428019143,1.0753686043060782,1.0970291167941895,1.3096025702458567
31,0.9279706992295034,1.077584966670552,1.0929520319867478,,,,,,,1.2408275798349342,1.2359645902893146,1.0142607103217147,1.1514894007389989,1.0829145728643215,1.3722222222222222,1.267318044788975,1.3157894736842106,1.0680127523910734,1.0962543953523927,inf,1.7966666666666669,1.0650887573964498,1.0818406374501992,1.5060569682418423,1.6333333333333333,,,,5.613472858322384,,,,0.8189967097921746,0.5325628551639273,1.2359645902893144,1.064520366311922,1.1610499543178663,1.3157191054788895,0.8612906722387466,1.0339971127442786,0.9168590379307124,1.225833333333333,1.1928150710546,1.5789266912862419,,0.9830895318624668,0.981938587129503,0.9842459154881804,1.023701565868494,0.9394902208523273,1.066136987427319,1.1977242596023578,1.2759568580429284,1.110097149062961,0.8994335409623518,1.121592280815608,1.009528051570029,1.0792278848019476,0.9258224225865168,1.134320046344778,1.0505923343876202,0.9046193977275985,1.7522788965179188,0.8584471625754633,1.2413729073208413,79.47662830774456,-2.1915184575680478,0.24771955583198774,2.3284817219717677,2.806400110675847,1.0,1.0,1.0,1.0,1.0,1.0,1.0,1.0,1.0,1.5283109849553171,1.1525429472221185,1.1051096225009909,1.1555205482140143,2.222260354366849,1.122633792653089,1.368739398121356,1.0035339925739315,1.0128255312058079,1.331390696374834,1.2914007343908338
32,0.9079458980510227,1.1017282024572337,1.7456018921850842,,,,,,,1.7451704719306584,1.7360616457070455,1.5844215200246095,1.584029833209182,1.085503525538658,1.561904761904762,1.4389215046749293,1.673274094326726,1.063157894736842,1.1203703703703705,inf,6.378186968838527,1.052325581395349,1.3442377064742739,1.990360744022611,1.8333333333333333,,,,0.6921285943878692,,,,0.5256749133643619,1.1260482077347977,1.7360616457070457,1.7436382700151465,0.9956541567348625,3.0270655304948964,1.0043674988149371,1.1438372385504536,1.751252645416985,1.1336435990826925,1.092069959256683,1.4087134372369272,inf,1.0129316739522833,1.013342673495253,1.0126235008496425,1.0137553580510015,1.128375326278581,0.8947590920935611,1.844030879363987,1.6420763424758018,0.9213023568306,1.0905915784498907,1.6735992480039557,1.8208636177906201,0.9540730779700534,1.0497619720478661,1.7017463498498318,1.7850311283327174,0.9174164610439186,1.9214510928467432,1.0967419245166945,1.0685143346217207,1.5316584329612475,0.6511935023411332,2.370517227518799,5.1108747250695945,3.9208259174531057,1.0,1.0,1.0,1.0,1.0,1.0,1.0,1.0,1.0,3.5423851044911734,1.4776672689049999,1.2178789709468298,1.0225307327368336,1.996901660597283,1.6904149129974746,2.2578858546474745,0.9282965107774787,1.0140629649232924,0.9319365552468719,0.8506305028598461
33,0.8994872659710624,1.1105414986490474,0.9750096156045764,,,,,,,1.20326818712816,1.2004709268001428,0.8779590427202053,1.0834977225826505,1.1077763819095479,0.8625,0.7786199095022626,0.8782051282051282,1.1423728813559322,1.1018935978358881,1.2139639639639639,2.3825075075075075,0.9155844155844155,1.132841328413284,1.3189431258396775,4.416666666666667,,,,0.32812164942353084,,,,0.42443707183956114,1.5277153263160546,1.200470926800143,0.952694950486734,1.2599102051452984,1.1438967777738895,0.7939747769653618,1.0153679591177627,0.7563144044319341,1.1466322644483564,1.120255080940565,1.0091414141414141,0.2846153846153846,0.9275425383545979,0.9274591294997478,0.9270706236857023,0.9009695252974823,0.7363196630416509,1.596673808447191,1.0248529291568498,1.5133901160436896,1.2703216621194409,0.808699576941915,1.0735632207323764,0.8561967765721038,1.1635830413736776,0.8663054153012428,1.0645214683678113,0.9182772253298301,0.7235122666879825,1.007569458232812,0.7158369715854659,0.9172156447883733,-0.6848609017586857,-0.053600996467705525,0.7552519560731414,0.7984374619239091,0.8833964941021645,1.0,1.0,1.0,1.0,1.0,1.0,1.0,1.0,1.0,1.8146795272676237,1.412198251507846,1.1255477513016143,1.1851426806066212,2.4942293851518,1.7504655103848845,2.370971170678292,1.110449734016597,1.1104505074881472,1.438530488170111,0.9412283047347024
34,0.9013627533957413,1.1094624021813706,0.8472399253366931,,,,,,,1.2195480482305472,1.2139806492678602,0.7636490679176534,1.0992243039636977,1.108040201005025,0.8210526315789474,0.7409560717919851,0.8205128205128205,1.1805965458818386,1.097128767551688,inf,1.6718926553672318,1.08125,1.0568181818181819,1.08861260690529,inf,,,,0.7153874810591427,,,,0.5853255542793436,1.1405479072990177,1.2139806492678602,0.8100076472081421,1.4987289805089112,0.9833328998550919,0.6672342605279205,0.998073221366583,0.5404654260505797,1.1186440677966103,1.100765149873415,0.865965418497388,inf,1.045845993530597,1.0510146893501893,1.040775309896338,0.795526231614094,0.918317561586957,1.0974953427809673,1.1629404642377983,1.2713467294239034,1.2891466063571708,0.7892465723029987,0.9196848610863491,0.7195947574532665,1.2474916670813219,0.8129781263489844,0.9445080258388081,0.7624694126551828,0.717810741750769,2.8222318359381076,0.8392179228530925,1.3911310901610894,-1.8985631129436982,-2.5534047120242547,0.29075098419606815,1.4576182001610138,4.393963310532927,1.0,1.0,1.0,1.0,1.0,1.0,1.0,1.0,1.0,1.9244206099928327,1.8754245781213106,1.1084146896414373,1.3907858306857328,1.7159869064569908,1.705971718473287,2.274864214683559,1.0588356722497565,1.1655206683095933,1.5476757814474178,1.0992228586032566
35,0.9247955706611535,1.081510507160232,1.2095588204553085,,,,,,,1.551338426106869,1.5444419735388202,1.1183976599832568,1.4344182657829965,1.0731707317073171,1.1818181818181819,1.1012396694214877,1.197674418604651,1.0666734664646982,1.0847846012832263,inf,5.257009345794392,0.9942857142857142,1.1353160981191448,1.1405215742057848,1.4285714285714286,,,,0.3095214128250038,,,,0.37007256973179714,1.5069400060510123,1.5444419735388202,1.1450383168444669,1.3488021273313358,1.768462929474777,0.7414173645647295,1.0734455621914956,0.848944774178976,1.0278359651949724,1.0555964503332924,1.1175636612383602,0.5833333333333334,1.0005516890136918,1.0020538910716597,0.9992670005708197,0.940754292147481,0.9513251462682737,1.047918477664655,1.5063642489815028,1.5810415020549726,1.0744114850036803,0.9218222009658809,1.1868218727926219,1.0993401542999663,1.0487727121973016,0.9492532055793235,1.2265047786765386,1.166895381382811,0.8449951774389673,1.0326827853792835,0.7735433705693764,1.0021633154585454,2.311419648287584,2.3100413341809265,0.4820489759727881,1.181987644555181,1.0883820470120915,1.0,1.0,1.0,1.0,1.0,1.0,1.0,1.0,1.0,1.3144938111715043,1.1042356116461631,1.1267283138803248,1.167521205238153,1.2844909579311223,1.2430029030467065,1.4700379672554034,1.1033337815201798,1.0808848809789562,1.025348235932534,0.8544012886375119
36,1.0185719205649746,0.9817932405968887,3.118340795082985,,,,,,,0.9091511574872311,0.9044316465034145,3.1761685313571375,0.9260108135746643,1.0011160714285714,3.083333333333333,3.0798997772828507,3.25,0.9162790697674419,1.0637006354149614,,,0.7911758289703317,1.040983606557377,1.9160906726124116,2.5,,,,0.01143908039575493,,,,0.22964679138010113,3.1314785221496924,0.9044316465034143,3.519599383617026,0.2569435480755561,3.1836144320045596,3.8945971237980586,1.1649100421397003,13.706007555583177,1.0905172413793105,1.0407564249476016,1.0707172303492396,inf,0.9951758237975773,0.9949288857257022,0.9953455261195399,1.1296869796869795,1.0788893608297956,0.9424637832808487,0.9392789103372338,0.8780706051768773,0.9042451185583217,1.1124839634121404,3.3465381599328716,3.711545832010148,0.9529939411832156,1.048838869945938,3.03095635415637,3.1789858807612985,1.163125023001953,1.2549296152416083,1.701648309161393,1.1563089234746768,2.139453932942985,1.466324346361959,7.142132708605742,4.567407533005369,2.6506341815746848,1.0,1.0,1.0,1.0,1.0,1.0,,1.0,1.0,2.5605089566747177,0.44005223438467156,1.3032615650460735,0.4125441504195758,0.13515599890741847,inf,inf,0.770915683381808,0.9638676977681224,0.7372313109372478,0.39853322162605553
37,1.0077397146612763,0.9922123984784621,0.6756142730146415,,,,,,,1.000227830427142,0.9958569222227078,0.6809169831486508,1.008078342863858,0.9817813765182186,0.8035714285714286,0.8185990496596558,0.8148148148148148,0.9953126134630745,0.975984251968504,,0.0,1.079326923076923,1.0038167938931297,0.7869148263170002,0.6666666666666666,,,,1.490725138545307,,,,0.8451468120473161,0.9019763474792495,0.9958569222227079,0.5859397415831605,1.6995598834155885,0.5835245220003326,0.588432957259651,0.9275048024963937,0.3447802848153473,1.1217650962176509,1.0883041420240918,1.1332417582417582,inf,0.9863939936197734,0.9864843705802251,0.9863316412618488,1.0018961709362757,0.9827671627148507,1.0127557909998774,0.9870557961033768,1.0021739791091355,0.995761550046694,1.0061448744656887,0.5846890351125255,0.5877359021275038,0.9382111288138747,1.0774640884754922,0.6481567417022818,0.6946269489882417,0.4994450814389346,1.1745985486991,0.6686681669579666,0.7788787641461712,0.298871544621447,-7.272511515260512,-inf,0.056905122024006466,0.5110422413387459,1.0,1.0,1.0,1.0,1.0,1.0,,1.0,1.0,1.4376205568269445,0.9787790254666733,0.9889202217588962,1.0608855794795464,1.6425331384271407,1.4266720015751027,1.8367126674231915,0.9271359450238776,1.1004685759527195,1.3340727063273028,1.2552199904136616
38,0.970090488373202,1.0311461942320628,0.7461813389203821,,,,,,,0.864925368843112,0.8596119437513656,0.7236425487451543,0.8387998255456219,1.0232558139534884,0.8333333333333334,0.8143939393939394,0.8699334543254689,1.032258064516129,1.0279690914544442,,0.3125,1.088785046728972,1.0363636363636364,1.1469967110957244,0.8571428571428571,,,,0.17904552441809274,,,,0.5231703980681616,1.7419422897362944,0.8596119437513656,0.7154859378120049,1.2014347322186834,0.6150464630393797,0.8323389749308359,0.9361892788978736,0.5955252472005514,1.1278019090519091,1.1001639237835557,1.0789250081529493,0.9958260531935546,1.0470707866434013,1.0458237353125068,1.048293680406189,0.9929306567854626,0.9801172566586097,1.0167598028080813,0.8502486418804773,0.8660198456631412,1.037098400120879,0.9528741443372359,0.7286394739813803,0.6984173747838989,1.0088363935771694,0.9898806368546273,0.7533473434626454,0.7462284207288662,0.6154308699178085,1.2148933534761195,0.8186866573230479,0.9743516794489817,-0.6950230295044639,-4.374455952744738,0.6712124274138168,0.3723349841914495,0.8978980188313308,1.0,1.0,1.0,1.0,1.0,1.0,,1.0,1.0,2.008661965936941,1.5830178522315674,1.1031763765701885,1.06603684878983,1.6285798793761144,1.3898611575581414,2.3062372744034585,1.0453373362521445,1.0779463321948666,1.704855849647263,0.9260358757930895
39,0.9891584543999282,1.0109673774764192,1.1196134478726296,,,,,,,1.161745852343949,1.1550857759009858,1.1074674483971347,1.149142770020855,1.0115830115830116,1.2000000000000002,1.1862595419847328,1.2260061919504643,1.0,1.0143293853350586,,inf,0.9874476987447698,1.0165171837965956,1.038693131132917,1.3333333333333333,,,,0.30340445838744445,,,,0.44864733009434676,1.4650578679358661,1.1550857759009858,1.0674718192078048,1.0820775417589916,1.2330215190479472,0.9241493901049649,1.0308941534489477,0.9865047169821521,1.109849157054126,1.0701332882146146,1.0606060606060606,1.8420942845223196,1.021595373887374,1.0217945730890863,1.0214101196427534,0.9090755868687176,1.0475259499922036,0.9640077828764366,1.182437889002583,1.1343216647812087,1.2164454016442594,0.7614404216016333,1.1772494853131892,0.9312344973669596,1.146611238861301,0.8594130343487448,1.1789282892021076,1.0206221922734162,0.6051220835481462,1.056784436870619,0.605937680906882,0.7343701738494331,-1.017652307372076,1.560919621646282,0.7527434622785072,0.9656031788583826,1.0508731071358972,1.0,1.0,1.0,1.0,1.0,1.0,1.0,1.0,1.0,1.5123241169062238,0.414858193516478,1.104054759872081,0.9256114557722848,,inf,inf,1.016063815924417,1.0153734825139495,0.7154601674269312,0.6674552950127969
40,0.9892515377902793,1.0106611031325476,0.7436160903596132,,,,,,,0.9474763864439493,0.9435638329455962,0.7357719497215955,0.9374817963284061,1.0,0.8571428571428572,0.8571428571428572,0.8285714285714285,1.0165289256198347,1.0038461538461538,,,1.0410958904109588,1.0074906367041199,0.9469616408755646,0.8,,,,0.5049541553134629,,,,0.7745166107772765,1.1841483504140569,0.943563832945596,0.6938303914616671,1.3599155965615424,0.6546847970123066,0.7353771007608124,0.9423958220564803,0.510219918266436,1.2467588529514595,1.2187363855056543,1.1076252723311546,inf,1.0466416727396215,1.0462205056950584,1.0470183135273543,0.8649819646002852,1.0462722518629892,0.966481514656987,0.9645923108021501,0.9270809693776785,1.2776568412859164,0.7561333527165695,0.7842479573380499,0.6032846309958255,1.2071057399997622,0.8237675476714916,0.8141840108178482,0.67255502050327,0.6725892012968705,0.6789336676750235,0.4452881917394238,0.758786325099319,0.3766017615752363,0.6591645960281248,0.05728056638123012,0.0712239868030562,0.20632169717704452,1.0,1.0,1.0,1.0,1.0,1.0,1.0,1.0,1.0,1.2455119566311366,1.428022465229218,1.0004533749036475,1.1163012929812997,1.433200039897525,1.7334321267931214,1.660063236671812,1.0187210219035483,1.0811552606799912,1.3616885996583954,0.6927585394128732
41,0.9657684345598918,1.0353183783634912,1.3271166501590663,,,,,,,1.0154951980200568,1.0099722160477633,1.2818439988062567,0.9808530585782045,1.0414141414141413,0.9615384615384616,0.9233374437709503,1.0,1.0431520457162113,1.039692758993361,,0.3263157894736842,0.9168585625984729,1.0517241379310345,1.0142287098233174,2.0,,,,0.15815793455594196,,,,0.6003443569107592,1.5982733435868142,1.0099722160477633,1.4343381363231584,0.7041333741666171,1.448684785769771,1.4201883448129085,1.0522129153526945,2.0370164586607515,1.1336638894533628,1.108471000274279,1.0838359770727806,0.9096774193548388,0.955722383964142,0.955975875009398,0.9554707261660327,1.1598408815087362,0.998712993260381,1.0011661648622203,1.0091769627789098,1.0103797085013602,0.8778930912343752,1.2564066127481806,1.3439240437333622,1.607684086594825,0.9314560263945896,1.1088482592744011,1.2784975591599133,1.3949008898316357,0.7949949739872371,0.9865035877718316,1.7464684686765009,0.7627822362049155,-3.7950356556730975,-1.4100192398121965,7.006919671150991,0.4944885483420859,0.7485653812669081,1.0,1.0,1.0,1.0,1.0,1.0,1.0,1.0,1.0,2.297986064856818,0.19226299680623585,1.117201191471668,0.7062892441659502,0.9098646846313444,,,0.9581990148278923,1.0540794850656536,0.6706177498961121,0.6222913925575146
42,0.9575172960395701,1.0446209489992881,0.9592157026277146,,,,,,,0.9649456403854338,0.9593547243477287,0.9182423816149831,0.9237269988210526,1.04296875,1.1666666666666667,1.118601747815231,1.1739130434782608,1.0447776494801342,1.0502677543898726,,0.4836065573770492,1.0277232224040733,1.0270303612705503,1.0532186269474404,1.125,,,,0.3727121597679628,0.1557513617741429,,,0.5588522530426016,1.3482475070256306,0.9593547243477287,0.9602905985716526,0.9989336903151238,0.92136122269672,1.0015170440836603,0.9886211102541973,0.961659080983024,1.1249298478806675,1.0811552710739543,1.0366133005940856,inf,1.0353733718158984,1.0346009317421836,1.036157523663713,1.0535502063801057,1.1270979922947497,0.9167957446210397,1.0184878563890152,0.9183550296553181,0.9294668177537938,1.0989569322550135,0.9255791769362886,1.0065084112092475,0.9766447570189505,1.0264855527131855,0.948392125127313,0.9725757168048657,0.7195891896385304,1.9421378839933814,0.7027858396835708,0.8917700081275788,4.6745701652065055,-0.7306420304242316,0.30632307775669343,2.2745370159796683,2.564004566821308,1.0,1.0,1.0,1.0,1.0,1.0,1.0,1.0,1.0,2.801271553247502,1.169445230838858,1.0550158902788418,0.9856699458991964,1.3037003453596474,1.5223897501016126,2.00467608595923,1.0268153230269235,1.0421578486958292,1.3166434139607484,0.8425344838211061
43,1.0534947726919472,0.9491588706172278,1.0509743402795562,,,,,,,0.9132714755848395,0.9064932442284737,1.1072691529019738,0.9621903126685272,0.9490276918848348,0.9230769230769231,0.9726562500000002,0.9697959183673469,0.9473282442748092,0.9460431654676259,,0.21374045801526717,0.9188154840328753,0.9680851063829787,1.0331312249780296,1.3333333333333333,,,,0.5260416541975688,0.19708396435680536,,,0.950861848231906,1.1278596918883133,0.9064932442284737,1.1845749506514853,0.7652483021178291,1.0738085928147432,1.3067688236369885,1.0103645739232259,1.5479668536467293,1.0898874238568896,1.036298019565736,0.9895833333333334,inf,0.9667832210097294,0.9668282817024969,0.9667431214681883,0.9261913549868767,0.9417680120020907,1.04878290984713,0.8793024979752302,0.9279249347162808,0.9708484135487712,1.054581448479401,1.167161705608983,1.2164245100268558,1.0067635781818085,0.9917081482984993,1.0566012622591012,1.0486682278167934,1.0506404502127151,0.5032826626042562,0.8084677344849313,1.1734975188767487,0.38219776381893555,-11.017121147176683,0.09719246397145645,0.4920035547957624,0.2778676884664397,1.0,1.0,1.0,1.0,1.0,1.0,,1.0,1.0,2.679004498614464,0.9718761041662956,1.1235095397156556,0.8242526184061743,1.0084650693153647,inf,inf,1.0666310348325352,1.0017364107860143,0.8673988454761882,0.6728501954951946
44,0.9866150522126358,1.014299851465348,0.5288130215528944,,,,,,,0.832624701126417,0.8289915199972642,0.5213576793851694,0.8208860817509869,1.0096525096525095,0.49,0.4853361995846861,0.518041237113402,1.0301302931596092,0.9864331703538753,,0.10638297872340426,1.0712698412698414,0.9893617021276596,0.7407608695652174,0.5714285714285714,,,,0.35528877251367164,,,,0.6312446704304413,1.2599833747386953,0.8289915199972642,0.4369594919882972,1.897180149372245,0.3622361309309458,0.5270989284927273,0.8731777408592686,0.23032070062029744,1.064762971257932,1.0296995524936703,1.0046816479400749,inf,1.0360845127760019,1.0381716245788777,1.0340505758587497,0.8099692654839714,0.9456412704355739,1.0400653932420867,0.8056639549986235,0.8449382626626367,1.2427228029971724,0.7142072313800933,0.4869756031152218,0.36921724997440647,1.0593586542479363,0.9402932519773206,0.5462807228420328,0.5146689309482948,0.5966923980363944,1.3191860062121563,0.45084463519658535,0.8540874109089716,-0.20785878506747663,-1.7021656449812355,0.06627271181386453,0.4449712508039958,1.1172447611690612,1.0,1.0,1.0,1.0,1.0,1.0,1.0,1.0,1.0,1.6543320986816,1.980689193348887,0.9860840719771383,1.070509235021821,1.4622132544397792,1.2738559780649128,1.3258290027201214,0.9846443155199563,1.09081455174973,1.6039331751544768,0.9515154855489572
45,0.9704726825199514,1.030487063969791,0.707661428513064,,,,,,,1.1591414711433905,1.1591648186334398,0.6867251396182932,1.12484814028651,1.0306622327111492,0.8928571428571428,0.8664119567778638,0.8202380952380952,1.0505800610176164,1.0304276315789473,,0.0,1.0717821782178218,0.9826923076923078,0.9615384615384616,0.5714285714285714,,,,0.8789535323909079,,,,0.763077078768994,1.044437635694555,1.1591648186334398,0.6346845032140533,1.8263693809879329,0.7357045716437385,0.5475356668813927,0.9580914245615242,0.3475134593898862,1.2289915966386555,1.271155099380906,1.3242025921500138,0.4,0.9695076165519623,0.9695720862237813,0.9695121019671399,0.9915151515151515,0.9825725674126764,1.0153847287319613,1.1483364974202437,1.1673523317112995,1.1078231130430438,0.9085677464010582,0.667941060072731,0.6049303311720795,1.0755167223045548,0.935693837449591,0.7356307745233039,0.6861946577232483,0.7161340349185006,1.925341981970556,0.7913623567231969,0.958575954299249,-14.499671897622214,2.718087453446006,0.6446419296222345,0.8535621831434655,1.980103525399818,1.0,1.0,1.0,1.0,1.0,1.0,1.0,1.0,1.0,0.6835395971093176,0.8302230673109267,0.9576552607844198,1.2724180239598062,1.3263802576644852,1.4724904155212024,1.8288226702651298,1.003548642168591,1.1496671784625936,1.7734923111952892,0.8548464472239197
46,0.9848966067934457,1.0156241465680003,0.9708213025792598,,,,,,,0.9103259240842443,0.9070926793606915,0.9558865678327777,0.8963220592138997,1.02,0.9583333333333333,0.9395424836601307,0.9318181818181818,1.0122950819672132,1.0175477261673151,,0.5295138888888888,1.0197368421052633,1.0055487221538881,0.9400088613203368,1.0,,,,0.6447255573491175,0.38206106215200786,,,1.1823896362423758,1.1415461866152032,0.9070926793606915,0.9898737319290042,0.9163816807984277,0.8978983239801277,1.0914678260225987,0.984843205993603,1.0804266154025024,0.8446392276422765,0.8308350864890135,0.974600870827286,0.2535660660660661,1.0377438255965203,1.037607736721232,1.0378874750325728,0.9300909043686043,0.9866790459576575,1.0113063562535072,0.9012685414311996,0.9126817676226827,1.1429628269234098,0.8233168605984753,1.0580440211305664,0.8978805365086371,1.092884969568257,0.9050289425491056,0.9948922894042518,0.9052857506703882,0.8046877395641238,1.1611598855723908,0.7875638996010816,0.8778954215858216,0.7279265569387111,0.8111566004046836,0.9020765190147184,0.9641268414618487,1.3476655672205806,1.0,1.0,1.0,1.0,1.0,1.0,1.0,1.0,1.0,1.3707022062823948,1.4166492330088603,1.0458289229815758,1.1751616536846017,inf,1.21665392081954,1.5753689919957148,1.1148280644782402,1.0002790758000255,0.8010719715779457,0.9299905486313184
47,0.9589196915915471,1.0417244968771686,1.3425439653332396,,,,,,,1.0605981325893672,1.0546651202193154,1.2887706421667207,1.0181177320904014,1.039801034430865,1.2019230769230766,1.155914648818651,1.1782826338082404,1.0327868852459017,1.0459283688450354,,1.875,0.9211129296235679,1.0790963257199602,1.0717948717948718,inf,,,,3.0051090996420036,0.22151200550463457,,,1.4040832552060922,0.7045159084759234,1.0546651202193154,1.5057003886061087,0.7004596661122828,1.5879930243203377,1.427698988370997,1.0670300798976031,2.149722124407017,1.0236787733797303,1.0050804217843714,1.0616211745244004,inf,1.0068009012720176,1.0057952862273714,1.007606252704695,1.087101688436327,1.0190239494509736,0.9872375427463977,1.0645569613630657,1.0478445493095818,0.9203602101035253,1.1172006608490186,1.4443653229770923,1.5913431262010693,1.0007890830403072,0.9996235792898422,1.3186270574914807,1.317864886222774,1.5550679478721903,1.1667516596351586,1.6588896738959595,1.4761369470904842,0.13026564114252315,2.0325253819730382,2.178565917976515,13.083556543306848,2.4781006310475426,1.0,1.0,1.0,1.0,1.0,1.0,1.0,1.0,1.0,3.8190571730962697,0.6866270175133753,1.1419968009334318,1.005484578989925,1.0564784557330529,1.432964633986744,1.685311117104043,0.8353438179247243,0.944199027972899,0.6695810258325853,0.9197304594788263
48,0.9987955334616275,1.001332949352668,1.1223695362779387,,,,,,,1.0131472605844594,1.0062353893813873,1.1208754671294736,1.0117986123134357,0.9979423868312758,1.0,1.0020661157024793,1.0494623655913977,0.9969934920552843,1.0027980845969673,,inf,0.9558139534883721,1.0330136035954514,1.088114670266732,1.575,,,,0.2766525881482303,0.05847885174577527,,,0.8507353509566913,1.4404300451940288,1.0062353893813873,1.166873990618288,0.8623409105692881,1.1741425337589173,1.1596816452971783,1.022260513162971,1.3532128256169145,1.0424442437295907,1.0100844618176743,1.1042472037523838,inf,1.0044346163801703,1.00454730168589,1.0043199878036124,1.0903133289124667,1.052906108022178,0.9619450241121608,1.0323959308504609,0.9869181018738344,0.9239123742772797,1.1093541804698135,1.1214389090763532,1.22882195538843,0.9545856401769108,1.0557388390883506,1.106658079078139,1.1637971564639744,0.8402989315310647,2.677700793741206,1.1614741208406476,1.2841941682989826,-0.8451156662011984,11.090675579964179,-inf,23.475909288025694,9.158963512882721,1.0,1.0,1.0,1.0,1.0,1.0,1.0,1.0,1.0,2.679491403867483,1.3968641572093747,1.1690472224029216,0.9552587917018387,2.0423616211840687,1.5599068818912993,2.0729237016555624,1.0569848618790774,1.0459725145516707,1.4741690628361728,0.8000058537796335
49,0.9434489528470982,1.0599120859990425,0.6254843316404441,,,,,,,0.9856248995472187,0.9804945881302694,0.5901285020737175,0.9299119356849272,1.053267395537886,0.6491228070175439,0.6163117717959019,0.6153846153846154,1.076271186440678,1.0426356589147288,,0.4696969696969697,1.1173708920187793,1.0255942354482501,0.6828310696095077,0.6190476190476191,,,,0.32702147632309375,,,,0.5784425336991071,1.3396450196499163,0.9804945881302694,0.5254847959080102,1.8658828511508792,0.5152358542383975,0.5359508431922502,0.9137469488538985,0.28163358316568793,1.1723167503916168,1.1533715468513652,1.1838176638176638,1.0465819721718088,1.0077802027749654,1.0077633724299604,1.0078150443498628,0.9486720802483879,0.9948980012831571,1.0037717031906008,0.9779912376470807,0.9823596589668804,1.3410220101547972,0.7016801350573119,0.6081707317549944,0.439978544065345,1.1818583736261978,0.8472487009670712,0.6754997118274363,0.5720491550671478,0.3215277889080739,1.222271941119554,0.37317904844914795,0.5817159937257683,2.1857140121502123,1.574216207915722,1.474699270095908,0.46493364231675527,1.0608602045363345,1.0,1.0,1.0,1.0,1.0,1.0,1.0,1.0,1.0,2.061879790861639,1.3431069820782522,1.0014825960549891,1.1708857426605612,0.9191299433601917,inf,inf,0.9722895715755142,1.1428148119169654,1.9854109674323344,0.8663561916558782
50,0.9168143097809587,1.0904839862941944,0.983847970312948,,,,,,,1.2534743674999826,1.2464252060170962,0.9022122329685698,1.1494661971656737,1.1008403361344539,0.7114624505928855,0.6462903177141477,0.7199191102123357,1.1081560283687943,1.0710050866723142,,2.0066006600660065,1.0095693779904307,1.083969465648855,0.7941862824675324,1.3333333333333333,,,,1.1527147084839635,0.17415710346747063,,,0.8471568588049446,0.9685116133528376,1.2464252060170962,0.9455586837823953,1.3181881614280644,1.178569185721911,0.7586214250634227,1.0218146644938626,0.7173205334037812,1.0275559424074276,1.0070000222311146,1.1299208874151745,0.6361607142857144,1.04897517885715,1.049423948862683,1.0484137454901614,0.9237395697195134,0.9878786787043395,1.0094029798793234,1.2379811990005196,1.2513891644386241,1.0363731924753867,0.9511993041455831,0.9625870862017556,0.9221627217964834,1.0134784065986235,0.9829784798886259,0.9883469010808819,0.9733463047508704,0.6936043251210997,0.8861367775335465,0.81972842203115,0.9874435242568163,3.971863071729659,7.922821971667519,0.5597416846392445,1.5164638776791675,1.0599216273039327,1.0,1.0,1.0,1.0,1.0,1.0,1.0,1.0,1.0,3.3994743028953303,1.7705710820427165,1.0900213944079211,1.1496181841289175,2.446072182663086,inf,inf,0.9870557352614935,1.0960184922868663,1.5643455713829755,0.9834174071469992
51,0.9347547925316727,1.0701444217390306,0.5849520301310123,,,,,,,1.1574957672227733,1.1512579229745796,0.5466103623475793,1.0816257541592313,1.060041407867495,0.6666666666666666,0.62890625,0.5606060606060606,1.1153153153153152,1.0476190476190477,,1.8144329896907216,1.1592039800995024,1.058139534883721,1.1594118647912885,0.5714285714285714,,,,1.2393643768034714,,,,0.45020969888360174,0.9456986624156518,1.1512579229745796,0.4850939176873581,2.3732637518164355,0.5584699470406413,0.42136178900804266,0.9245722024825946,0.20439966603568102,1.1228843927449144,1.0553899652260306,1.0341964285714287,inf,1.0126658992629025,1.01315096934513,1.0121707801466249,0.8764116575591985,0.9141221498044473,1.0739301702117483,1.1007131823876015,1.193057920951137,1.2973776865178346,0.7285066603617965,0.5523481687512044,0.4139577907052918,1.1517958183390542,0.8641255696791922,0.6195669395315546,0.5367148612046045,0.4302115021748163,1.737643628311597,0.36508903339279575,0.8045568892280419,2.3615791727928044,1.4365819965471094,0.12664375583763712,0.20252460234455177,0.8823720260023526,1.0,1.0,1.0,1.0,1.0,1.0,1.0,1.0,1.0,1.4643126204251193,2.2046385398240087,1.0181831907768046,1.4781272622021102,1.6577606537265772,1.4213371264286518,1.8368519568508515,1.1274285159676065,1.1947673581390332,1.3962604334016455,1.2274773318996393
52,0.9710425860805111,1.0300313837917219,1.0465392803314568,,,,,,,1.091391634575029,1.0844262907926887,1.0160265303898073,1.0595711451178378,1.0248015873015872,0.9166666666666667,0.894456689607605,0.9779411764705883,1.0511674890938996,1.0267175572519085,,1.9212598425196847,0.9495412844036697,1.0324390307248787,1.2715044518323206,1.2857142857142858,,,,,0.23600787127002137,,,,,1.0844262907926887,1.0485798848967538,1.034183721117953,1.137110917506333,0.9669494917210115,1.0168695774143504,1.013921876043491,0.9922295897223372,0.9650341369947065,0.992791234140715,1.047792207792208,0.9937728484372497,0.994202191252106,0.9933171413296464,0.9701950842147995,1.04468729939703,0.966619790361429,1.1083625733352083,1.0661535733582048,1.0181993204153332,0.9831728528832029,1.0580343704959818,1.0396573002590939,1.0202548279993147,0.9814269833022307,1.0643332336040072,1.0438666670195922,0.7730008177381889,0.7320399404444753,0.8289045330321902,0.7993713536229985,1.2743629445559235,1.3839393222364214,1.0533356859226324,0.4352684009253246,0.5375107032868585,1.0,1.0,1.0,1.0,1.0,1.0,1.0,1.0,1.0,2.953248860880925,1.603115103527745,1.0916972640959968,0.9850874541395283,2.7870668287938707,1.4031044111301019,1.6980200280784135,1.0582260294779158,1.1424333053596998,1.2893052904553195,0.9704741297113144
53,0.9614361584870013,1.0399077658864135,0.6460386366932537,,,,,,,0.9582251528492316,0.953292671541115,0.6212460930538131,0.9214520597722857,1.0338013027256054,0.6000000000000001,0.5803846153846154,0.6578947368421053,1.0616033755274261,1.015267175572519,,0.41895604395604397,1.076555023923445,1.0202952029520294,0.6852252086542663,0.8571428571428571,,,,0.36595268046733465,0.7368729723061891,,,0.7055524541800641,1.3554975791166073,0.9532926715411152,0.5744369864086519,1.65952589360041,0.5476064488097265,0.6025822758649051,0.9234934311195429,0.3461456851886411,1.0306318681318682,1.0082894633456432,0.9791666666666666,2.4117647058823533,0.9733548550037914,0.9721404727415017,0.974616186710858,0.867748174630197,0.8016149098164684,1.2212142590760378,0.8531055897637826,1.0529655102004174,1.1948932361247042,0.8037427175371034,0.6276212895137203,0.5145113086874304,1.071870509270906,0.9270769255166842,0.6675771985920769,0.620819310535571,0.6071967583480233,2.635517620277157,0.9444982264064357,0.8674989447890633,-21.235568674444636,2.231515659326719,0.8487774487987695,1.7252625209913968,3.8988014712385066,1.0,1.0,1.0,1.0,1.0,1.0,,1.0,1.0,1.3505904054682172,1.1360969415369393,0.9870289881799024,1.0095220717375786,1.5850015329275031,1.7759124067942125,2.10266845400072,0.8390208293091591,1.1211310358505686,1.437951858772232,0.8721503524111724
54,0.9697491522327042,1.0315071111065648,1.357503168495338,,,,,,,1.3158624691619425,1.3099987520760545,1.3160387538425025,1.2756698728093698,1.0321931589537223,1.0333333333333332,1.0010454665207522,1.032258064516129,1.036943744752309,1.036134849504789,inf,4.050251256281407,0.9120370370370371,1.0639097744360901,0.9902673519532923,1.6666666666666667,,,,1.0576900841325552,,,,0.6131619982476084,0.9790038525355548,1.3099987520760545,1.382465593462496,0.9475854577223896,1.8110346568189268,1.0553162111467544,1.0805140276932987,1.458944522075659,0.9264867882958334,0.9056299603174602,0.956989247311828,1.0273972602739725,1.0837392124480867,1.081844329953546,1.085546171941087,1.0126786986161986,1.3051176744812887,0.7968802442521239,1.4946246729844803,1.1679236303238787,0.7474360583175264,1.4515698389006142,1.1952044731293512,1.6655058877842448,0.8223448134576424,1.258197036247866,1.2403579305897825,1.5342019092997674,0.8643340348427828,1.973897490728377,0.7797773516586848,0.9746130069539071,-0.47437972954321916,-2.415247050622699,0.3365438794093797,10.720049642413056,4.19742023276171,1.0,1.0,1.0,1.0,1.0,1.0,1.0,1.0,1.0,2.0866151458410367,0.9162916911635908,1.1235554028234662,0.8921243832068653,inf,1.5548723872524701,1.6424436429382474,1.00628550909041,1.0556689251898819,1.5040212643742525,0.9051366790225981
55,1.0136373647541737,0.9888013949540451,1.4177088675745555,,,,,,,1.2674432053019973,1.2692036287489459,1.4337651762920869,1.2817974984216143,0.9961089494163424,1.2857142857142856,1.2907366071428572,1.0,0.9778688524590164,1.0132575757575757,inf,2.8112373737373737,1.0027027027027027,1.0,1.2510245901639343,1.0,,,,4.837588765096738,,,,0.9474816337979728,0.5167502524358321,1.2692036287489457,1.64672907683555,0.7707530474422783,2.090025521789757,1.2974587080009665,1.0958372338582771,2.13659298733859,0.8210683033543996,0.8304191432473502,0.8925557520385106,,1.1595658469089334,1.1807277622649743,1.1422341223845427,0.9929996093187752,1.6629651927292666,0.6618120456243148,1.6269857860737864,1.0263733969063993,1.3261233043437013,0.847858912498049,1.8961791221670623,1.5162984948100982,1.37030213051787,0.823725472286301,1.8372935407330475,1.4245702086197651,1.8015401185090263,2.9456681822307034,1.4507061851728196,1.9955415226383053,5.141548679136562,2.253573880785409,0.12983552259549946,12.143045154240399,7.046448006414992,1.0,1.0,1.0,1.0,1.0,1.0,,1.0,1.0,2.672486485904523,1.0550262505961103,1.1416334746805967,0.913586159988671,1.6038630168020813,1.5625388327003888,1.7345230080340204,0.9482974215976816,0.9123128032122622,1.2582110554551966,0.9480948230517171
56,1.0012938733662349,0.9987037964645034,1.93855972799904,,,,,,,1.2280119664978841,1.21932928415927,1.941075757258265,1.229605785864789,1.0058195981034093,1.8590909090909091,1.848334574346135,1.797979797979798,0.9804704626470195,1.026615969581749,,2.991329479768786,0.8653846153846154,1.0287769784172662,1.7613477720405433,2.5,,,,0.7315991482124728,,,,0.6208969761153638,1.1485431054961635,1.2193292841592698,2.1960715198147183,0.555236509965867,2.677731252669238,1.8010511807669847,1.1399072489719093,3.9552689995450567,0.9273016551690114,0.9031065088757396,0.8994675427665119,0.6178746928746929,0.9999316006805214,0.9989978559859394,1.0008400948774558,1.0629899357710009,1.1184261859952953,0.9039463373802903,1.2895090208629993,1.159290503094402,0.9943506148949464,1.0058411731283938,2.1898193571353404,2.2024813098863385,1.0347127630414121,0.9668744289169113,1.9565420235849986,1.891331643615319,1.1569003139816025,1.1464597392871738,1.1153321886773573,1.2124569184921357,0.2294220004793962,-0.9659207053281222,0.8431834188008851,7.2242894581302854,2.746961236355973,1.0,1.0,1.0,1.0,1.0,1.0,,1.0,1.0,3.550566270990222,0.36435587143726184,1.2805431668477745,0.7423588259068157,inf,1.4456363867290878,1.5169767036465354,0.8874397576366267,0.9060035126284609,0.9723529162805848,0.6102014408871057
57,0.9625595046260579,1.0386658795749706,0.8761239148323356,,,,,,,0.9380607752696108,0.9331033156804709,0.8435089012367016,0.9031400700805461,1.027158124482577,0.9411764705882353,0.9162931756145765,0.8134779516358464,1.0496513872443831,1.0300751879699248,,0.7250000000000001,1.0298905001479728,1.03971119133574,0.9722222222222223,1.0,,,,1.0855602816746526,0.16307538782101574,,,1.5775108876736674,0.9749817965776211,0.9331033156804709,0.854770807221924,1.0916402111498966,0.7975909710417342,0.9160547609743912,0.9711848503187147,0.7830159182460641,1.039772727272727,0.9911681312610106,1.0104651162790699,0.5221311475409837,0.9839604545690434,0.9843081378490111,0.9836492372310237,1.0572979016167872,1.005692048589652,0.995016704006437,0.9356666306540624,0.9306887120648148,1.147669851019681,0.8670141236032907,0.9156598139268457,0.7958247729629406,1.1112441469303287,0.9004526754926514,0.9201284590290838,0.828248649653952,0.6346761888905782,1.8939588572261945,0.9306160042627463,0.7787117775924678,-1.2442659118568968,3.8228854119286546,5.699089902483575,6.828635542533703,6.111116777987262,1.0,1.0,1.0,1.0,1.0,1.0,,1.0,1.0,2.13904215813771,0.6199463009934243,1.0459719277234254,0.9389280499461715,1.6272308585432311,inf,inf,0.9664852703512081,1.0636280077297322,1.024018160722079,0.910299735139918
58,0.9746119773494724,1.0255163922835324,0.8549441895840484,,,,,,,0.9328420197857852,0.928597831799099,0.8336719795902447,0.9096317177611084,1.0187435809654228,1.1071428571428572,1.0868853231544968,1.1153846153846154,1.0175510204081633,1.0255725190839695,,0.39832089552238803,1.0980392156862746,1.0220184227537168,1.1280460788657511,0.8571428571428571,,,,2.6971712408018815,,,,0.8660901079497985,0.714324953110371,0.928597831799099,0.8252105642958059,1.1252792688897386,0.7662965227467082,0.8886756131850212,0.9651543046395962,0.7333401675226702,0.9985365380887768,0.9982016988622155,1.0012141816415736,0.36274509803921573,0.9489414252728707,0.9501348540992294,0.9478811063986137,0.9494966863925803,0.8463598366429339,1.1960338952947571,0.8542323633715445,1.015371782172553,1.9660354255654962,0.5878729389761572,1.1570151377617703,0.632711335323616,1.581609494582723,0.6817350029607537,1.0662583715389635,0.7000440413535427,1.0420076137627137,3.571318418779259,1.5129535333383717,1.314157753801548,-3.2941621291496976,4.426475708368603,1.8558195114296312,6.910031746408296,12.509392425369732,1.0,1.0,1.0,1.0,1.0,1.0,1.0,1.0,1.0,2.003063790278135,1.1683786049903908,1.044583996787806,1.042188532901931,1.2018738175468413,1.3190193854357442,1.5943185412352006,0.9620159851277493,0.9726372418685059,1.0360705015338212,0.8677916040022432
59,0.959984021241757,1.0412488016391306,0.8422043265245895,,,,,,,1.1603048811529384,1.154641795844764,0.8088406202233263,1.1143397037541747,1.0475113122171946,0.7777777777777778,0.7425040636247533,0.7573099415204678,1.0543893129770994,1.0301169157910315,,inf,1.0519125683060109,1.0139760956175299,0.8113629178522106,0.9375,,,,7.345620421353646,,,,0.733811948152107,0.5419583153810282,1.154641795844764,0.823045496379603,1.4028834356718334,0.9503278942336226,0.7128284078422948,0.9930577046079344,0.5866877198921743,1.103781412246848,1.0937930477482716,1.1561971056970142,inf,0.9830233471088878,0.9814234752558342,0.9845814847519889,0.9144952656074468,0.8536170717347822,1.1769773363513019,1.0666112128643142,1.2525086377745915,1.0484729787901625,0.9566830441849885,0.8424997153913409,0.804715109167454,1.0245683264100096,0.9815608949322276,0.8610828511401812,0.8427040347338954,0.8735309378187004,0.6217111421046093,0.8184639472913576,0.7981637518688225,0.9178359700375591,0.9510284798506093,0.6145363966201121,0.10565444383774586,0.24201206368078929,1.0,1.0,1.0,1.0,1.0,1.0,1.0,1.0,1.0,1.7281264186372074,0.816385855872526,1.0355178677480015,1.253178434966547,1.4758518958248166,1.2753398351648977,1.6024659898222038,1.0488048748496746,1.0684715895648913,1.533288034114265,1.2658596229996975
60,0.9930640370781103,1.0067373365886825,0.9205777706195899,,,,,,,1.0266149939716185,1.0210881066826718,0.9144170287586798,1.0197445324058263,1.0140249124897593,0.9705882352941176,0.957133917396746,0.8857142857142857,1.0135135135135136,1.0,,inf,0.946078431372549,0.9942084942084942,1.0469696969696969,1.25,,,,0.4854880274185236,,,,0.45055786385928687,1.2493887960849979,1.021088106682672,0.9125817158799451,1.1189086917363595,0.9318199704321377,0.8938208297548609,0.9904782480425964,0.8156905434517678,1.243838182776184,1.1793942856930146,1.030019799041538,inf,1.0111462468730639,1.0114162666574817,1.010849786653072,0.9387633044710685,0.9422541024150889,1.0530742120400483,0.9912502202845992,1.047859676085178,0.8638867237303507,1.2001519476432034,0.8481189512376592,0.9995682718329695,0.8696837982697275,1.179488392940863,0.8652156481085432,1.007523189417443,0.7780397350335158,1.369046809617057,0.6636938769858283,1.0821070559244657,-5.25382560693086,7.003696809762494,0.03688617348243227,4.8842926440036285,2.7185747926820176,1.0,1.0,1.0,1.0,1.0,1.0,1.0,1.0,1.0,2.360820208402852,0.5805083153204372,1.0143246903577952,0.9842160787464986,1.2671610041513255,1.217493943394476,1.4120804779619531,0.7480281252472981,1.002054709393442,1.4459635617743445,0.8968583793352976
61,0.9716491445916091,1.0288794953764728,2.136979991713142,,,,,,,1.081695050843516,1.0758934328881542,2.0769973561687216,1.0513330819638091,1.0414746543778801,1.9166666666666665,1.840339233038348,2.0,0.9928909952606635,1.0575221238938053,,0.0,0.8765798690421807,1.111587982832618,2.1553515851664296,3.3333333333333335,,,,0.2862252412185651,,,,0.24232081516365625,1.257655803219043,1.075893432888154,2.3374929489638547,0.4602746092963941,2.5149091703984223,2.1726390483053057,1.136423823051247,5.078505897359634,1.0774709438341037,1.053581934567664,1.0735051960092434,0.8890243902439025,0.9549645001986731,0.9539754534257552,0.9559497431104026,1.0920744051457763,0.9830189774840019,1.015503177946396,1.0659295942403353,1.0834548415841536,0.9465281247480837,1.075640967392307,2.273746791736986,2.4233462366225185,0.9716438024830879,1.037281937157053,2.117781750698118,2.18780782536099,1.4820911367817096,0.93591927121662,1.2025392301652549,1.3729895058684982,2.0852103048825987,1.9846640949186887,0.183419465113896,1.7181287454573295,1.0617528948545705,1.0,1.0,1.0,1.0,1.0,1.0,1.0,1.0,1.0,2.5002660797932963,0.6126148642628113,1.2790483322521478,0.6215271643063618,inf,1.4751218783554632,1.802388577193516,0.9705016029429645,0.9313242370070987,1.0063384669714739,0.5576548229066983
62,0.939239617693002,1.064603852410296,0.9121605017284695,,,,,,,1.2461431665412044,1.2452275383769393,0.8568129312510848,1.1705238270204807,1.0691244239631337,0.7638888888888888,0.7144995210727969,0.7819990954319312,1.0673076923076923,1.0555066079295155,,,1.0520626914069537,1.024649193820414,0.8271758241758242,0.9285714285714286,,,,3.0425766493731343,0.17905528201167692,,,1.6719771104972856,0.7295024358696699,1.2452275383769391,0.8933616134012827,1.3939531680870063,1.1124477018977754,0.7174231698068723,1.0150839988311617,0.6409578021345133,1.1855966014192985,1.2291155542676842,1.3650678294573642,0.9579100145137881,1.0934519630538082,1.0849862490541171,1.1021751401301478,0.9749396310248237,1.1748414662404247,0.8987606706853024,1.34489188162286,1.1764251180630634,1.1271417600762867,0.8798820138851373,0.948336728452626,0.8380182119055346,1.1175787152920011,0.8919567475836359,0.9692833057689032,0.8660594100916601,0.9193363095746443,0.4612775552507692,0.8848161080011216,0.649623872521129,-1.5116191590586088,-0.3536138574716373,2.920854459182208,0.2481484168038858,0.25084864489157516,1.0,1.0,1.0,1.0,1.0,1.0,,1.0,1.0,1.3396490722070347,0.8429225907175768,1.0423162170029867,1.1861339400155333,0.7789868418199766,1.8842447116649252,1.8633569800212961,1.0203931371550365,1.045306799918853,1.7705311494068732,1.1935104814026158
63,0.9638302500728245,1.036882530652627,0.973152493218147,,,,,,,1.1333582328484786,1.1323731082600146,0.9386099071159885,1.0931235771516739,1.0356515465211118,0.90625,0.8754186043110759,0.8916666666666666,1.0456066945606695,1.040926640926641,,0.8248197115384616,1.0277777777777777,1.0185873605947955,0.6751158232359231,1.0,,,,0.21163561192505123,0.2749191948478018,,,0.9173933305363661,1.5582800500502025,1.1323731082600146,0.8922252637598418,1.2683231384883042,1.0113831286578805,0.7893280810144021,1.0011648612905417,0.7037959562373144,1.0040166539189976,1.0016835016835017,1.0057142857142858,,1.0002276341242196,0.9965860703118001,1.0037187683123694,0.8115079365079365,0.8638376821273916,1.1191513587470807,1.0491493952643258,1.1998401778133752,1.4019486065771467,0.7351488710915604,1.0560232844209032,0.7651458829394493,1.2213585741068824,0.8432104206430644,1.0541885274644855,0.8772823406951014,0.5330567189957303,1.1965507936993682,0.459458564057202,0.7324388424001851,0.7574532950918172,0.843900442664911,0.21964035307818852,0.7284165527131448,1.1897712373703289,1.0,1.0,1.0,1.0,1.0,1.0,,1.0,1.0,0.9531903868778352,0.6328146872216054,0.9983519259199332,0.8361525650447343,inf,0.8787134163953444,0.9601854432349177,1.0338058301922897,1.1137205335869358,1.2913448662150309,1.198543019731598
64,0.9648340733457451,1.0365086629617521,1.0630257140677328,,,,,,,1.2079372860891342,1.2044003846360176,1.0255829826908154,1.1653900438103042,1.0362903225806452,1.282051282051282,1.2371545445475407,1.3137254901960784,1.0248962655601659,1.0431372549019609,,2.610526315789474,1.0455695620169303,1.0430711610486894,1.2870967741935482,1.0,,,,1.0616803573887363,,,,0.7227425530000103,0.9775688450824755,1.2044003846360178,1.0132120956238762,1.1887196461828504,1.220289621627944,0.8415038334633618,1.0265156576934573,0.8526393756373863,1.0372530425162003,1.0380227509063826,1.0146531100478469,0.535650623885918,1.0028068303298496,1.0028085961923656,1.002797137198518,0.9674757401519021,1.0037782130751798,0.9964253187462102,1.206785411223672,1.2021334407630402,0.954472726910986,1.0376347870372828,0.9894110942760217,1.0317829638411933,0.9779949386102712,1.019068687157793,1.0475660236239692,1.0695294774526163,1.0431353865335233,0.37185752609213574,0.8189873733810675,0.6026187710411985,-1.2428487341176573,-0.22695142613838143,2.218205719787421,0.04639771943028457,0.08877106369991583,1.0,1.0,1.0,1.0,1.0,1.0,,1.0,1.0,1.096903988485573,0.5264858346058809,1.0879095912796535,1.0590889455587584,1.0822418969282737,1.0783590550285813,1.2807286887006732,0.9610291316004057,1.030065029592772,1.4586616992627586,0.9361471339354367
65,0.9579048799859377,1.0442271197620467,1.7716851771300202,,,,,,,1.2545103111771196,1.247374687244525,1.6966477998536036,1.2013771979047374,1.049808429118774,1.476190476190476,1.4061522419186652,1.4642857142857144,1.0392000000000001,1.0620792819745701,inf,2.4263313609467456,0.8731763570049346,1.0884476534296028,1.3044265790561562,2.75,,,,6.2269790909102305,,,,0.627324827843966,0.5544363923785627,1.247374687244525,2.1681957560012366,0.5752920128636272,2.7061536383239595,1.738249318740018,1.1365533023585437,3.7687772128511363,0.9586589880707528,0.917731264284855,0.9492577288031834,inf,0.9982657006357156,0.9980266835272126,0.9984613314920334,1.0935418364866218,1.1308559642453155,0.8923293521361468,1.3267740916929374,1.1762763324581815,0.8917037486544,1.1478249408788233,2.0428259720174458,2.3226628668934386,0.994785506635772,1.006864935905797,1.7497941517737416,1.762183238184222,2.7686057333120155,2.9519146846457565,2.7373704076287324,2.5166897425087695,0.008856390457481636,2.7411393510448674,1.6559475662574572,89.35085330804745,20.68882120901279,1.0,1.0,1.0,1.0,1.0,1.0,,1.0,1.0,3.2897069586664425,0.3492777477293572,1.2116207323176496,0.7921159386641748,inf,,,0.9859921386319008,0.9307802867503365,0.5669375105568073,0.7728476488771356
66,0.9830003016412718,1.0171977930735716,1.3207390355367232,,,,,,,1.1124749229641124,1.1043847742585702,1.2984094765360576,1.0936665761596767,1.0151515151515151,1.1111111111111112,1.0945273631840797,1.1111111111111112,1.0138829272345293,1.0256410256410255,inf,1.12181668929834,0.8727678571428572,1.0524475524475525,1.2475499092558984,1.7142857142857144,,,,2.956161732296881,3.936311414408946,,,0.5282312155771339,0.7519494995356604,1.1043847742585704,1.4082271986679251,0.7842414746413887,1.5552213064869864,1.2751286618726403,1.05623590734336,1.7956796445845304,1.06452319356324,1.0260263807490193,1.0314940577249576,inf,1.0166613522077257,1.0156391895282861,1.0175698054612452,1.0555460731172874,1.253114684800702,0.8254002400196068,1.2360954528310382,1.0032213067316795,0.7276100488558259,1.4422977679883,1.2011612369092974,1.6911131401275763,0.8502714446057213,1.180695200029915,1.2101343506239286,1.426017067465454,1.714003754720427,0.7432653279280936,1.9584364892321509,0.9473492455704347,-2.3775935775191277,-0.3553785574013813,9.302432966687498,4.224850710431365,1.1092365982337276,1.0,1.0,1.0,1.0,1.0,1.0,1.0,1.0,1.0,3.8659309688243173,0.599657889730389,1.1485556627381301,0.8079655168535277,1.2485366264073647,1.1101284959189694,1.303725047098851,0.8376746120595691,0.9684675331272212,1.1794543671207043,0.8080659092586598
67,0.9454324046608558,1.0572563282881002,0.7770245168930945,,,,,,,0.8758321128612334,0.8711964600314411,0.7349443045200263,0.8284009179489827,1.0493230174081238,0.8181818181818182,0.7797241646449613,0.8674698795180723,1.0636243639692577,1.0436713545521836,0.375,0.6294642857142858,1.1127450980392157,1.0465949820788532,0.936936936936937,0.875,,,,0.5746222756943697,,,,0.7270872495757303,1.200665389513861,0.8711964600314411,0.7384937993388591,1.1796915420737268,0.6433755349993078,0.8476807038665284,0.9464425221884849,0.6260058147091212,1.14375,1.0841401904020502,1.0502946127946127,inf,0.9714164470446673,0.9727876709517579,0.9700868593337705,0.8473695167169432,0.833699810455852,1.2475962811905896,0.7953950237202951,0.9730086115006674,1.2958575606350309,0.8099836633397919,0.8406706555175927,0.6646356187695938,1.133488963364341,0.8930664618618831,0.8251676102226505,0.7324438028550566,0.7689007212713037,0.7787889797342998,0.764649337825781,0.8909907178372849,11.749143581423697,5.13340645625495,0.3929887146649754,0.7740217769506565,0.7303680352339139,1.0,1.0,1.0,1.0,1.0,1.0,1.0,1.0,1.0,1.6302675458995803,1.3129455022569436,1.05918481128339,1.0682641409162428,1.836493568292226,1.54790664076239,1.4481522389540364,1.0222299588169494,1.0601158063283442,1.356768938891387,0.7866419969785217
68,0.9483217212380972,1.0542068789973327,0.894872829508213,,,,,,,1.1333052518192548,1.1263342632296336,0.8488588410268543,1.0750311674091462,1.0588235294117647,0.9307359307359306,0.879028379028379,1.0313390313390314,1.0431947840260798,1.050936329588015,,2.1860068259385668,1.076555023923445,1.0632946162297912,1.1517539220870792,1.0,,,,3.855971561903643,,,,0.306464926404961,0.740891928999804,1.1263342632296336,0.8490210789924357,1.3266268293394563,0.9562816477814551,0.7537920999319796,0.9944166586823096,0.639985313174853,0.9804529941048712,0.975120504263997,1.0635090218423553,inf,0.9538266517712447,0.9516523941496249,0.9559873026631169,1.1083869731800766,1.015082588626907,0.9853782755124454,1.1340460120456957,1.1173289416889127,0.8715190842649135,1.1795480120848425,0.7925877723934848,0.9220725200587272,0.8904100104551049,1.144179834469066,0.8490201956659749,0.962432190686509,1.0687095344756319,2.555406157931371,1.1087425903370411,1.538072471916054,-0.5420581755894187,-3.3160294740588667,0.3357101974458041,10.97150880545291,7.661336977789482,1.0,1.0,1.0,1.0,1.0,1.0,,1.0,1.0,2.282756262442354,1.2215275712875888,1.1459775600567932,1.032141971929192,1.6027555748672708,1.5138818586289797,2.1987202591488644,1.0352587195688567,1.0133030210706888,1.4249710569880811,0.8996283349623124
69,0.9840131176950548,1.0161830802644478,1.2783415156162408,,,,,,,1.0192298091412606,1.0133648925908196,1.2579834681793458,1.0029982086259692,1.0193798449612403,1.2857142857142856,1.2612710483432918,1.3461538461538463,1.0153748268630065,1.0183453318082936,,1.413612565445026,0.9279069767441861,1.054945054945055,1.1859477124183007,1.6666666666666667,,,,0.5909605616300346,,,,0.4584942691566716,1.210761536054343,1.0133648925908192,1.3561041255261066,0.74726176361704,1.3742284929718729,1.3382326044729003,1.041049761364748,1.8147825192648703,0.9607549826213208,0.941420305936435,1.11437908496732,0.25,1.0322931237428912,1.031860327917808,1.0327463250294073,1.167623873873874,1.043356741116157,0.9583524154525134,1.0349565073699147,0.9919022821401566,1.1247277094105548,0.9166664717748905,1.4374724018446505,1.297955289558855,1.0863214712406921,0.9363984157786158,1.327046239921851,1.2321502398269484,1.2433906098285983,0.6743990566579225,1.621695791719251,1.0080033275538736,-0.22780649054615132,0.5465596744571495,2.9792002516417093,3.406940802185424,1.160293335578895,1.0,1.0,1.0,1.0,1.0,1.0,1.0,1.0,1.0,1.867016000956783,0.9295407948161756,1.1383162589018445,0.897317125310793,1.3658026774049565,1.6365101531432138,1.6770991479437638,1.0766524230053762,0.9576510505459188,1.415156214501974,0.7555828535970219
70,0.9330551975630558,1.071709102370265,0.7405681695349103,,,,,,,1.0551755839417933,1.0488065836284926,0.6910160199492399,0.9845725551092144,1.057658255865427,0.8694444444444445,0.822013366750209,0.8396341463414634,1.0675105485232068,1.051223241590214,,1.161290322580645,1.0561797752808988,1.1111111111111112,1.0137167852936835,1.0909090909090908,,,,0.6691079803371625,,,,0.6043712598383257,1.1823618359932195,1.0488065836284926,0.6965407257832782,1.5057371311077539,0.7305360526714644,0.6641539431181197,0.9625565486954339,0.4626105565006858,1.1825639599555062,1.1125931093736714,1.2806242969628796,0.40430107526881726,1.0173534734337455,1.0161600099799895,1.0184284967583879,1.070081170817589,1.1458796200892194,0.8758160670236865,1.122662690364102,0.9814684545083137,1.0273300275234802,0.9798491377517516,0.7059927731945062,0.689485795830856,1.0601460094277613,0.9549785434403899,0.7593953320355328,0.7207472565373679,0.6316575764210046,1.8878168431744788,0.9337713927325053,0.9566232923829501,2.6051629321696694,1.658416100506643,0.960748402747087,1.4980159656451597,2.6027622099751815,1.0,1.0,1.0,1.0,1.0,1.0,1.0,1.0,1.0,1.601325701114177,1.2056275850329166,1.1008745266289623,1.2066256162126656,1.9963686483478917,1.2279717774180186,1.3688627686600952,1.039072695042441,1.1330550155267685,1.5375313665084585,1.2043048961398828
71,0.9737076345465112,1.0274529051387993,1.3869979100453982,,,,,,,1.0347356144808162,1.0288079464713284,1.3499383448384394,1.0070883399288872,1.0259615384615384,1.1741071428571428,1.1442958931997025,1.324074074074074,1.0200803212851406,1.043609022556391,,0.8286516853932585,0.9375,1.0471014492753623,1.5820587019429517,1.5,,,,,0.3400984162097931,,,,,1.0288079464713284,1.5610328013109913,0.6590509824754192,1.6060184841469267,1.5173734088657864,1.0638272729436098,2.3686518310796645,1.2140223427612038,1.1590124959154469,1.0250686813186813,inf,0.9850095573358726,0.9854773915740325,0.9845453650569351,1.0220550456665793,1.007717971002588,0.9930230359584595,1.032623471131258,1.0251065904769565,1.1132932209575517,0.9115652235199267,1.6470570510762155,1.490372471402507,1.0740484675586885,0.938441041618276,1.4366608518436155,1.3428827335093318,1.809325751605103,3.046877787205613,2.598879011122044,2.558297386952412,-5.046455156623224,13.904703334466076,1.0716359992550542,538.7096302155416,26.308930740042562,1.0,1.0,1.0,1.0,1.0,1.0,1.0,1.0,1.0,1.906973497832216,0.9622466100442797,1.168423711862767,0.8164633985511314,1.9892102788219508,1.2195767610018855,1.5328183334456291,0.9528209471214133,0.9714574600530935,0.9219378612281367,0.649387316325278
72,1.0396676048080997,0.9617758190347163,0.8278201975660205,,,,,,,1.009798519961731,1.0074335316109717,0.8607205254846904,1.0499312335172348,0.9572864321608041,0.6666666666666666,0.6964177459355194,0.7114624505928854,0.9831616154463485,0.9481132075471698,,inf,0.9339333381429911,0.9699570815450643,0.8446803416074706,1.3333333333333333,,,,1.8697176366474886,,,,0.5307881046056313,0.7950309302529934,1.007433531610972,0.8210866806612716,1.2269504747142355,0.8271911571731594,0.8150310086710046,0.974316764669602,0.6692105482252512,0.8792957348648904,0.8645893719806763,0.9082725245768724,0.6776265702322041,0.9110582805766945,0.9099509826385382,0.9124387832532146,1.0385474945811553,0.8598201745904896,1.1597034764901848,0.9319287633132267,1.082296295819038,1.0867532526004924,0.9152006602999995,0.8557719868055687,0.7853309464207128,1.0723961971061153,0.9290562940932565,0.8594923970593498,0.8000020506034411,1.0088091794027931,1.8279314114951712,1.0480624964397043,1.2273819857818116,-3.0466582364001282,7.898147353426629,0.5039762712596604,3.1606863935743696,4.084427358151313,1.0,1.0,1.0,1.0,1.0,1.0,,1.0,1.0,1.5703993520401296,1.119392385857188,1.051807673132383,1.1415588118285962,1.6229784323018517,1.6777323134433604,2.290852422157559,0.9806547751026027,1.0076843933254993,1.5496831341536434,1.3288835564281236
73,1.04193216246588,0.9597823583602026,0.9261930434781938,,,,,,,0.8730366576048592,0.8693413012926559,0.9650031962044014,0.9096194048580457,0.9596412556053812,0.8571428571428572,0.8931909212283043,0.8901098901098901,0.9672897196261683,0.9600354770531401,,0.0,0.926829268292683,0.9535392451351705,0.8998294970161977,1.25,,,,0.9726330952207155,,,,0.9026383365909525,1.013357178234194,0.8693413012926559,0.9317409956817119,0.9330293172356543,0.8100015514238501,1.0717778414249022,0.9701705853122584,0.9986197709597434,1.0725118609733992,1.0114257818691315,1.0093639368631055,1.6031746031746033,1.0121468195822483,1.011729111157519,1.0125695772483536,0.9129009557104265,1.000364308827559,0.9997306051577594,0.8695602804655137,0.8692856512104001,0.9993017510035735,1.0010838232776922,0.9313260159647772,0.932110915269089,1.0045049625324476,0.9944767651299105,0.9223495240605347,0.9177229179946587,0.9589379378828491,0.6844094207474384,0.9227354940980244,0.9490794695877306,1.2080672326715705,1.6348266411531083,0.454616706201436,0.740167110953625,0.602550501409215,1.0,1.0,1.0,1.0,1.0,1.0,1.0,1.0,1.0,1.866697798265677,0.916341905296624,1.0538472799736356,0.9265140922262849,1.6663391661613736,inf,inf,1.0239227637353372,1.002971128819847,1.0359608679435561,1.0330666110576632
74,0.9759042509508479,1.0246178244943756,1.4483940266512139,,,,,,,1.447234036413623,1.4386430763558224,1.413594464347823,1.4124624826373253,1.0227895392278954,1.3333333333333333,1.3036507936507937,1.3475177304964538,1.0093896713615023,1.0353046113337774,,inf,0.9301865671641791,1.0736889692585896,1.3713747193854378,2.0,,,,2.0350227161766803,,,,0.3887746786932206,0.8177350767273116,1.4386430763558224,1.4453734324339496,0.9953396653744548,2.079388368651545,1.0046903042150799,1.1118839625660313,1.4521470534545462,0.9711619604024667,0.9296945234376071,0.841392645191049,inf,0.9842403780770743,0.9846173180604648,0.9838801505424717,1.0447545195910588,0.9702800544117292,1.0288428814272659,1.4167890506592422,1.459097297700688,0.9991817246591419,1.0010500229506496,1.444763583834669,1.446124879353611,0.9956837138882249,1.0052521742527964,1.4412453268256549,1.4481747716562103,1.0501000509758414,1.2816238031608185,0.9904187385430615,1.206845732663334,1.7088340940215763,1.5674931318801386,0.37040638834106543,2.9989367741075332,2.0725654531250806,1.0,1.0,1.0,1.0,1.0,1.0,1.0,1.0,1.0,3.27486620724227,0.6919884636639109,1.1617609275281011,0.9361856122826533,inf,1.3587789552721636,1.4933089189045106,0.8896674538306015,1.0198027737887894,1.137490159325572,1.0100458464834436
75,1.03176042069547,0.9693539051566789,0.8056433240456906,,,,,,,0.8289741992195662,0.8247812388436186,0.8311137562372061,0.8551823190356344,0.9763486014503477,0.9285714285714286,0.9509125235997483,0.9285714285714286,0.9697508896797152,0.9623259623259623,,0.0,0.9764704579679333,0.9268736130049999,0.7954326923076922,1.1666666666666665,,,,0.40531227879835646,,,,0.6218093488459577,1.3721773075051926,0.8247812388436184,0.7878377986074568,1.0468862211128749,0.6497981248733536,0.9552481933510327,0.9414758881765637,0.7525763424365985,0.8950972862263185,0.858974358974359,0.9629803186504218,0.40601503759398494,1.0304326070527416,1.0293187433170083,1.0315532476572142,0.9195402298850575,0.8688213220701126,1.1377612156929375,0.768703183437927,0.8796837081041344,1.0419360895792162,0.9553637822230203,0.8041848277076658,0.7700543590447841,1.0158592305029006,0.9832325469278165,0.7993471232945586,0.78641108390672,0.8046028661388389,0.5318163755905089,0.719477418288389,0.7553151232328359,0.9514850427695407,1.6736319241247597,0.4883722784652125,0.13168576707712742,0.23245699400894007,1.0,1.0,1.0,1.0,1.0,1.0,1.0,1.0,1.0,1.4699538274259027,1.1242017521938625,1.0449202263005422,1.0021718051207664,1.9334799740893418,1.7642223645911868,1.8608479567680245,1.0398614429279984,1.0664082475470291,1.0997598123722914,0.9147263268200352
76,1.0223078586070211,0.9781469137024756,0.8795668191163694,,,,,,,0.9328956510874198,0.92869687072432,0.8992173405771753,0.9537371050615313,0.9780793319415448,0.8083333333333333,0.8263869525996392,0.8,0.9851406128819051,0.9729525777766188,,inf,0.976905188598737,0.9865900383141762,0.8851462765957447,0.8,,,,1.1978766511208685,,,,0.5833282141279117,0.935476847327364,0.9286968707243198,0.8629204693788977,1.0761942155870776,0.8014164323736583,0.9295622759872162,0.9698423631762279,0.8021151211870485,0.9451737451737452,0.9053181828117889,0.9176261271331694,inf,0.9712605252602373,0.9716149559177145,0.9709419316125811,1.1046950798901747,1.0410208134805967,0.9684917362055694,0.9471692563312284,0.9140210268604907,0.9563036174139942,1.055842724160865,0.8435059375855694,0.8861490014097405,0.9683114887689845,1.0362337273829234,0.8624281672337514,0.8919264131734297,0.7792461229704939,0.7502002357401496,0.8422218161351804,0.7129331569378896,0.7137843864772077,0.5997450464964503,5.864003967148372,0.6894757627447962,0.8244330521110002,1.0,1.0,1.0,1.0,1.0,1.0,1.0,1.0,1.0,1.0668348799820264,1.3795144035212266,1.0418596351568428,1.0121993883464198,2.3053220940823467,1.365113719107272,1.9187820004350788,0.9881965331134676,1.042867346283698,0.8713984858007655,0.8393542379942229
77,1.020808436354585,0.980654703489042,0.9834842873019489,,,,,,,0.9785844707901991,0.9739129779185396,1.0028854307258612,0.9978890310116474,0.9781249999999999,0.9511904761904761,0.9724629133965432,0.9754591990364347,0.9753961837560605,0.9754169496641762,,0.9320388349514563,0.9560975609756097,1.0093283582089552,0.8672743055555556,1.1428571428571428,,,,2.4839728281711455,,,,0.8156082821312073,0.7733066982288959,0.9739129779185396,0.9899301391705071,0.9838118976619253,0.9641144422382784,1.0165374180274909,0.9952856755793453,1.006292834796307,0.8975188781014023,0.8603681145047772,0.9146654351395731,0.21638655462184872,1.0623537487994414,1.0646059710226043,1.060073080096121,1.0543666608906601,1.294357773864481,0.818622722790367,1.10707349487446,0.8805314806786346,1.0740200378704996,0.9384630733935482,1.0258839597140672,0.9589796291804226,1.0996623027456962,0.9202964270775819,1.0356583301007773,0.9474727231237725,1.1592565745599643,2.3779240826279464,1.2129920848380102,1.4119594172950891,80.07970481597648,2.469168466168175,0.845966861771779,9.461192098988153,6.233148044912085,1.0,1.0,1.0,1.0,1.0,1.0,1.0,1.0,1.0,2.3553907679273376,0.0,1.0966651316027218,1.0083585691398058,2.017200722902862,2.996797060643468,3.5758192915061073,0.9618867847963823,0.9890952912533479,1.0550548898351846,0.7296785829472743
78,0.9716596661050695,1.029223074556783,1.0381665606027002,,,,,,,1.094712884235173,1.0889490215114184,1.0086959229351284,1.0636313760624738,1.0319876341152936,0.9444444444444444,0.9150596877869606,1.0583333333333333,1.0337939897192565,1.0297710289327457,,inf,0.9812206572769953,1.03824836945395,0.9936883629191322,1.4,,,,1.154719337247113,,,,0.66365633688924,0.9596971487022603,1.0889490215114184,1.0129067481865908,1.0751386535259035,1.1030194214766673,0.9301584386818889,1.0134578775574208,0.942221011624639,0.8818449742095745,0.8759357603581106,0.9500806383159325,0.20357142857142857,1.004791899008509,1.0030551572060704,1.0063607753062216,0.9470498719354712,0.9563919834946809,1.0362000693998639,1.0647848115509904,1.1083669134067633,1.0759731124760958,0.9302168314823798,1.0502911394255836,0.9768968130809448,1.055544167627005,0.9500281824752455,1.0523557548044327,0.9986554805295855,0.8096791702753998,3.5092408638808728,0.8367379106240623,1.1432203092142383,1.1373819168616026,3.113581887363808,0.36426625996752343,6.579155603461433,11.811258298324576,1.0,1.0,1.0,1.0,1.0,1.0,1.0,1.0,1.0,2.5976941041929265,1.269430604296692,1.1150303684729255,1.0773897206435699,1.6667448603973383,1.2120405442026316,1.5211325791887416,0.9695914043666772,1.0572509279117501,1.0794010944259078,1.076386999877629
79,1.0267249043743607,0.9737201110707612,1.3059106657268251,,,,,,,0.9293660777649206,0.9238200266678894,1.3411560863223904,0.9544488811632584,0.9735274597643936,1.3928571428571428,1.4305140466228332,1.3981481481481481,0.9569989940245771,0.9861424807076982,,0.7322695035460993,0.9211711711711712,1.0055970149253732,1.2141300964830377,1.4,,,,0.6061063737407797,,,,0.6341520455781597,1.1814946382872893,0.9238200266678895,1.476957434643412,0.6254891854224043,1.3644470537366697,1.5987490219685603,1.0428433183249983,2.361286493258156,0.9580008865248226,0.908178015739517,0.8632879148343067,inf,0.9478287960150292,0.9462875374086328,0.9493342230180863,1.1643588049180984,0.9521855510049781,1.0452720230481731,0.9005472899736378,0.9435707843538664,0.7628329026057596,1.5782790673275864,1.289877892533918,1.8554375034818373,0.8290130751013127,1.3011111851872716,1.2086298800349247,1.5141768596983738,1.1855191154893072,1.5827032152117453,1.1318281552050458,1.6465288546685521,-11.356336856964983,13.639538992644187,0.20503969433104807,15.676052960349992,3.828963018696002,1.0,1.0,1.0,1.0,1.0,1.0,1.0,1.0,1.0,7.370075475535348,0.4889590090395232,1.173995312280349,0.8321643381187125,inf,inf,inf,0.868132399212149,0.9682224140612814,1.6423977439621016,0.8992004908304265
80,0.9908323664601123,1.0086769989528235,1.1640796338727237,,,,,,,1.0345496795144422,1.0291028885784224,1.154065916039634,1.0256505559942763,1.0071953084729721,1.0666666666666667,1.059047619047619,1.0234491315136476,1.0,1.0050820953870212,,1.7222222222222223,0.8870692709717424,1.0685789336197138,1.4383979398210898,2.666666666666667,,,,0.871146083530121,0.16148179731785134,,,1.3492607659702034,1.0509057510535353,1.0291028885784224,1.1661913250883065,0.8824496712694472,1.2001283279781707,1.1332713471261733,1.0244537237279392,1.3216141200596692,1.1133333333333333,1.0597489273796283,1.039447731755424,inf,0.983998199447286,0.9772263701360251,0.9900651327855094,0.9366400543570579,0.9360260670306346,1.053646019192981,0.9960172560463902,1.056752298739709,1.28602179523435,0.8126712261130593,1.3223658281872588,1.0512473141470169,1.1896428606844693,0.8670251777256907,1.2329622098473227,1.0526424779197856,0.9923420811376684,1.2193607804666977,0.8949926452554189,1.0625943345945452,1.7388571972477886,1.2781916510128668,0.15087294417249458,1.600857084228287,1.5291816566153191,1.0,1.0,1.0,1.0,1.0,1.0,1.0,1.0,1.0,1.2697191114081332,0.8686468113266272,1.1085758223778372,0.8908498800147383,1.2559362348771748,1.3160365813164185,1.3014817696374685,1.0494895714509944,1.0096494176967146,1.0315530977005858,0.7720248090972186
81,0.9598776678820429,1.0417174011191221,0.7599172882120576,,,,,,,0.9614366671558627,0.9611556825573315,0.7294850212678945,0.9229343205949807,1.0372093023255815,0.7857142857142857,0.7575272261370916,0.7017543859649122,1.053662548150094,1.0315315315315314,,,1.0520833333333333,1.0296610169491525,0.7146990740740741,0.8,,,,2.0082907758544373,,,,0.7642103025991152,0.7630930062131941,0.9611556825573316,0.730433824698975,1.3159068334394182,0.7020530027992429,0.7599670904548301,0.949724780961857,0.5551213648863298,1.0161379057399595,1.028097250416369,1.0695508607077016,1.068840579710145,0.948396039522819,0.9469563310264091,0.9498574321180013,0.9794381616605073,0.9110676112658798,1.070499159056618,0.9172760264479076,0.9942961263839548,0.9493000372653326,1.0720933273014122,0.7116334222222369,0.7561300958007517,0.9253081323277506,1.1015858874195885,0.7337838820349978,0.8006150980938496,1.0695950408895154,0.5802160479216777,1.0030671472678918,0.9123172959875809,0.6183742583059998,1.2348557855134936,1.1869847311591935,0.5396845503699812,0.39640418583230064,1.0,1.0,1.0,1.0,1.0,1.0,1.0,1.0,1.0,0.7227624046353196,1.2730183063325915,0.969637354370833,1.0979244983515657,1.5674345433209869,0.8023260028232115,0.9909748316089093,0.8923915845195383,1.029582674355678,1.2617442584641672,1.5855847730085895
82,0.9697743338152771,1.030938990531786,0.9421011734701059,,,,,,,0.9472995044372436,0.9464146976432367,0.9138282498988082,0.9188705763748455,1.029274004683841,0.6595238095238095,0.6407221129288327,0.6992481203007519,1.0536881729525929,1.0142222222222221,,,1.000014530659692,1.040173782450118,0.8178461199294533,1.1666666666666667,,,,1.7095647233802609,,,,0.8633066237724933,0.8718823760662089,0.9464146976432368,0.9465329769542654,0.999876906403936,0.895812620685961,1.0001250955830763,0.9848054011641387,0.9466531516506652,1.0678321678321678,1.0546207264957266,1.056542652194826,0.7100694444444444,0.8695352438907392,0.8717039496852108,0.8674241014212771,1.07257326007326,0.7840970577665836,1.2328815597171316,0.8367349363384831,1.0492139971332501,0.9229139359494578,1.0838324319544812,0.909287519723416,0.9852960458224114,0.9108907623387543,1.0959531264507376,0.903228037645581,0.9906716148306416,0.9906470771785751,1.7015443657751614,1.3164724084844857,1.7011731363185045,-1.105313657018203,-1.5957298695024575,0.43194398706089643,1.4031880900439262,2.2984591151569718,1.0,1.0,1.0,1.0,1.0,1.0,1.0,1.0,1.0,1.3546126924550907,1.1728427151762921,1.0233138335976713,1.0811737256059941,1.0369165746824867,1.1388300805639293,1.2385006950829043,0.9877882634941682,1.0573430579052776,0.8917898578345124,0.7493858270642839
83,0.9806180825295551,1.0195830042732634,0.8620900809070156,,,,,,,1.0048164160144752,0.9999891723588894,0.8455319758263435,0.9855168306620194,1.0217653727457856,0.8285714285714286,0.8108904548366432,0.820572764465225,1.0294117647058822,1.012216404886562,,inf,0.9850746268656716,1.0242914979757085,0.8671707421707422,1.0,,,,0.8716231960043316,,,,0.7026088972311431,1.0646499723914742,0.9999891723588894,0.8467151037891579,1.181015784589475,0.8467112229426388,0.8467528641792856,0.9766014154511433,0.7169546610365489,1.062141599954579,1.043000101595042,0.992057721454328,2.1511035653650254,0.9897469059058309,0.9902535833562003,0.9892416234699268,1.0013102257161575,1.0314473402947446,0.9732763160940343,1.0155516479944138,0.9864977190946982,0.9777875602638999,1.0348862728855797,0.8372450550161064,0.8613019475199317,0.9748744199333566,1.0363641364703273,0.8555755890577632,0.8821086394639797,1.000363827682335,1.2050983801288644,0.9037567489431455,1.1179018731114108,6.4412110727183824,2.1681057355003475,0.18184666157695753,2.7708653750797088,1.6898690466527309,1.0,1.0,1.0,1.0,1.0,1.0,1.0,1.0,1.0,1.3303153049259517,1.1934219057288777,0.9964541663012114,1.0628539030305104,2.33578533023747,1.633311253151934,1.9819725327920064,0.97379781373935,1.0575037632509576,1.1583843435968788,0.9878643230152626
84,1.062884993025504,0.9409576096911645,2.2640704948754102,,,,,,,0.8500843835528211,0.845718488539443,2.406134213639155,0.9034251437104185,0.9498339564110723,1.625,1.7108763693270737,1.5833333333333333,0.9216589861751152,0.9727642823497746,,,0.7965686274509804,1.0309322178009046,1.5991191030867793,2.916666666666667,,,,0.24667036967320904,,,,0.4457951625020074,1.4827273365811475,0.845718488539443,2.570905555530469,0.32899508759780793,2.1740888871852677,3.0407076470946475,1.1148888322729067,7.818266939568302,1.0298358002629893,0.9791341776324665,1.1065174337233161,1.0183862433862434,0.9403340066608163,0.9403639776190807,0.940320058771577,1.2354687124087138,1.052694184199814,0.9589604117825783,0.8667097833079365,0.8270356391830975,0.7293885112054116,1.6047113316044435,2.195217133630739,3.2567228058311706,0.7935224879016514,1.356980468492854,2.041597999641008,2.6701033706864914,1.1050537472607764,0.2650948997586069,0.8254675453067065,0.7087403807135948,-1.4659626329916642,0.21692243219305957,0.6532783190836842,0.16111918123879929,0.08681612638638717,1.0,1.0,1.0,1.0,1.0,1.0,1.0,1.0,1.0,2.960322311154254,0.5740369381867083,1.2490926331784717,0.5332412299637083,1.621906074751756,1.2587285328309679,1.5415786293969724,0.8550027385010643,0.9051828784073782,0.9761104575138119,0.5326986105821081
85,0.9743119250560777,1.026722425281076,0.7164618804840429,,,,,,,0.7234435751505026,0.7202535181207469,0.6978145094780885,0.704614405676661,1.0387793427230048,0.75,0.722002262443439,0.7196687370600414,1.0390243902439025,1.0092963465201408,,0.06153846153846154,1.028284430346286,0.9979674796747968,0.8003025428921569,0.75,,,,1.0339153147902305,,,,0.5981762862196598,0.9874559127417182,0.720253518120747,0.714783702059653,1.0076399248716146,0.5148370582133105,0.9924330656829494,0.9103808872324123,0.7093661931084653,0.9122569737954354,0.8689705031810295,0.9009594971900154,0.16417910447761194,1.0181565829927908,1.0190157292890527,1.0173018894972854,0.9074822236586944,0.9177080258137101,1.080265291882304,0.6899369964641342,0.7484621875426158,1.0619673744678797,0.924258753594686,0.7365950827684589,0.6871319836295096,1.0426925074361182,0.9498045150668248,0.7306770456674034,0.6973206167082788,0.8268220911685424,0.569465732924777,0.7048708503871429,0.770561859991759,0.8978747725642158,1.1321839573057977,0.16508442394451767,0.3113650147967863,0.3176636979534476,1.0,1.0,1.0,1.0,1.0,1.0,1.0,1.0,1.0,1.8547562482248923,1.1960745993170485,0.9923782487228002,1.0061757287522062,1.5066243869766343,1.3274713906156754,1.809158973212297,0.9617130739197333,1.0936220570133144,1.3108957649520314,1.2803915670538613
86,0.9579078763119411,1.04501353043592,0.857486903449497,,,,,,,0.8979239680632565,0.8929982487979817,0.8205511037343831,0.8592463868986955,1.0458715596330275,0.7777777777777778,0.7436647173489279,0.8,1.0579710144927537,1.0326846402126448,,0.30869565217391304,1.0557103456039627,1.0637860082304527,0.8545241143832694,1.0,,,,0.2457553364039624,,,,0.5897718706711026,1.496116039464147,0.8929982487979817,0.8657239835156731,1.0315036354028213,0.7730909467484381,0.9694610950962577,0.9649298415906631,0.8392849574368039,1.0305245881332838,0.9844447763025744,1.0045091075724595,0.8165966701664917,1.0559849935069774,1.0603792203809832,1.0519478916660696,0.9824480170256824,1.2251304822815845,0.8675213037196512,0.9881469366794153,0.8315484676221189,1.031780397902941,0.9707022726822903,0.8790304312503783,0.8525347056077461,1.0496242840788454,0.9531534813120369,0.8905432343838211,0.8486368536991422,0.8948364137230495,1.597872596648462,0.925785000528293,0.9706496345284832,3.0012055361437397,1.3446272058709219,7.504965800364421,1.6483137568947788,1.8085732030406207,1.0,1.0,1.0,1.0,1.0,1.0,1.0,1.0,1.0,2.0737408562966273,0.8039266628811321,1.0462482978193222,1.054446548624625,1.6731049228519392,1.4867936247251734,1.6962346446929701,0.9653847629852279,1.036600879102909,1.0656457843798408,0.9450998437553333
87,1.0029733335239412,0.9972994453906284,1.5705503261895863,,,,,,,1.1046214799108067,1.1007898650830832,1.5748031681441712,1.1076126483537165,1.0045454545454546,1.6,1.5927601809954752,1.55,0.9809302325581395,1.01140350877193,,,0.9379585326953748,1.01449710229416,1.3291121120739016,1.6666666666666667,,,,0.662777749050693,,,,0.5901197170196157,1.158239023870619,1.1007898650830832,1.7154622491511762,0.6416759601503111,1.8884013829039423,1.558582010102365,1.0996680091465039,2.673642501366825,1.0131794871794872,0.9735493787626489,1.0403183023872677,0.5086822303685125,1.0877559321848036,1.0867289354987117,1.0888045764301426,1.0869592054426178,1.2488120365827238,0.8541627155035,1.2277848768524768,1.0156937331203078,0.9549541853549397,1.132902765575851,1.6695361267036128,1.814667147995522,1.0075353018363464,1.0327455235656706,1.6063500629332064,1.6248812333274016,1.22746211714361,1.7235709152769492,0.939265162351014,1.3196158952499264,-58.230672624846136,1.3828673562905829,0.21642874075369506,0.8903298568174839,1.7524013234021907,1.0,1.0,1.0,1.0,1.0,1.0,1.0,1.0,1.0,1.6880030466863012,0.7080548721347539,1.223106124983894,0.7840710341780444,1.6248790061296383,1.2009925451217742,1.4998368106530733,1.0159287473530334,0.9278839111788454,1.2056271013968871,0.7518619229753759
88,0.9177055850442541,1.0898642504310376,0.7874884502933184,,,,,,,1.2223549402571017,1.2166521482206494,0.7225564522064678,1.1215661593459578,1.0707964601769913,1.125,1.0506198347107438,1.03125,1.0794392523364487,1.0799145299145299,,4.360594795539033,1.1818347398457896,1.1639676113360324,1.4131232034889485,1.1428571428571428,,,,1.7911953101625215,,,,0.8151385276495945,0.7920963390586745,1.2166521482206494,0.7341978784417442,1.6571123950207722,0.8932663055644696,0.6034982969378498,0.9854094411228327,0.44308580593776203,0.948704745637831,0.9271881756504883,0.9075858250276856,0.7105263157894737,0.9571188336014962,0.9566792606469159,0.9577148757483559,1.001938222198135,0.8750556773514342,1.1543547637820044,1.1370674995937589,1.3060981188044993,0.9336825571225731,1.0858696328333592,0.7093845963026657,0.764989723136418,0.9211604226717842,1.1013783626329765,0.7526639666959206,0.8229864332973543,0.8192222414326114,2.720990520763796,0.7624476703470365,1.223735015486548,5.105897868070391,1.7094419793446316,0.21077414662243854,1.2828423896152548,3.601298011540811,1.0,1.0,1.0,1.0,1.0,1.0,1.0,1.0,1.0,1.5042930578631761,1.0017215111967006,1.0929131725328767,1.3186627606003278,1.2816113193594738,1.218648824964622,1.7676624987844236,1.0103128600015698,1.0836068583315663,1.1297843460573271,0.9998497346549826
89,1.04248261321652,0.9592358168037602,0.9969505067256353,,,,,,,0.7941508027714331,0.7895045398652054,1.0393174644769825,0.8278994676006486,0.9598393574297188,1.0,1.0418410041841004,1.0333333333333332,0.9543568464730291,0.9540229885057471,,0.28384094754653133,0.9976851851851851,0.9910586277521762,1.012326607818411,0.8571428571428571,,,,1.2903550030173117,,,,0.7110770746694797,0.8968963177060185,0.7895045398652053,1.077236254937742,0.7328981884488561,0.8504830827893481,1.364446021548098,0.9786108645085159,1.4698306476812832,0.882208350482462,0.8429338068226957,0.7525773195876289,inf,1.0075534833509876,1.0074417596149599,1.0076543877781956,0.8770612449183878,0.9688409145843875,1.0259570871317807,0.7770806731668403,0.7996802015309739,1.3518415085655957,0.6964701163269117,1.2523082806247308,0.8986627342481168,1.284882702251118,0.7575933305026901,1.1325143678573335,0.8695403313444676,1.1635604812973361,3.1939989323682774,1.0468217980284145,1.6140621245912536,4.156256103004042,1.5220149175604543,0.2591173959805791,5.259881440371932,7.27453482533139,1.0,1.0,1.0,1.0,1.0,1.0,1.0,1.0,1.0,1.8673750586250435,1.0188550667101373,1.0842531580453882,0.9155809876359486,inf,1.4729614167909932,1.7029020369498569,1.044157796042986,0.9493376422141875,1.0552305434374931,0.8139854624274556
90,1.0499730762185502,0.9527364247744019,1.6950577491440866,,,,,,,0.9030162745590047,0.8998216965429744,1.7791465447880017,0.9478133005650575,0.9528594650509827,2.0069444444444446,2.1065538194444446,2.0588235294117645,0.8888888888888888,0.9957327985467233,,0.6875,0.8242143379177463,1.0471163127413128,1.6584766584766586,2.0,,,,0.1312086671893509,,,,0.6465151290224491,1.9262146028167098,0.8998216965429742,1.8191451592769288,0.4946393660986827,1.636908713053286,2.021678878796757,1.0662326202543067,3.67772371608476,0.9800415673329668,0.9349691707620922,0.9155209863021772,1.5422691879866517,1.0461885924573755,1.048886679486574,1.043812440179201,0.8514496174034869,1.0303157856376761,0.9657127203822817,0.9119786173027021,0.8828736628992067,1.216677328850278,0.8534594412781206,2.00389755915685,1.6790187147691,1.1647306580618444,0.8775632612359285,1.8483560704788187,1.6046083226384944,1.1202695065853951,0.3971540567392437,0.9341060569399275,0.8387560747178258,-0.7434732712045782,-2.3509808288583964,1.279463094531481,0.18052041736318716,0.12433017679643177,1.0,1.0,1.0,1.0,1.0,1.0,1.0,1.0,1.0,1.6959059722642518,0.6030200164352559,1.1952251299934749,0.6416064318706018,1.2736757194218806,1.0811513470275997,1.3393317801478712,0.8123521837512396,0.9469684050830839,0.8796569598436871,0.5513658683216324
